ecg_value
2095
2055
1988
1936
1851
1748
1690
1555
1508
1560
1535
1521
1553
1607
1571
1648
1687
1614
1723
1856
1853
1915
1942
1933
1927
1987
1971
2008
2074
2088
2078
2091
2030
2033
1983
1950
1940
1963
1950
1982
1936
1892
1909
1897
1950
1965
2082
2690
2977
2155
1667
1654
1535
1670
1846
1907
1787
1300
911
622
674
953
1294
1427
1620
1799
1919
2031
2085
2107
2135
2112
2061
2077
2064
2064
2025
1936
1842
1808
1739
1743
1798
1777
1747
1750
1711
1673
1681
1677
1698
1692
1712
1701
1645
1584
1584
1621
1595
1616
1691
1761
1818
1856
1855
1897
1931
1938
1973
2014
2031
2066
2128
2151
2204
2256
2270
2306
2256
2361
3090
3520
2551
2073
2025
1855
1946
2093
2160
2150
2139
2130
2118
2124
2135
2143
2154
2155
2171
2151
2153
2160
2157
2179
2208
2211
2217
2197
2174
2162
2116
2032
1997
1963
1933
1901
1894
1895
1905
1886
1899
1913
1845
1866
1899
1919
1857
1840
1841
1845
1840
1822
1827
1869
1887
1906
1948
1953
1921
1882
1859
1831
1805
1792
1780
1761
1756
1766
1775
1758
1762
1790
1691
1893
2686
2620
1868
1595
1430
1372
1535
1658
1710
1730
1740
1758
1760
1777
1787
1811
1827
1845
1872
1904
1917
1929
1963
1978
1991
1990
2000
2003
1987
1968
1936
1879
1833
1775
1758
1734
1721
1706
1685
1707
1716
1716
1707
1712
1712
1717
1710
1719
1726
1737
1732
1728
1762
1816
1818
1821
1836
1858
1835
1812
1791
1760
1752
1735
1730
1733
1741
1744
1743
1741
1778
1712
1744
2410
2914
2225
1730
1563
1443
1584
1699
1762
1775
1798
1813
1825
1837
1834
1823
1833
1847
1872
1899
1926
1941
1968
2003
2021
2018
2032
2055
2047
2020
1967
1915
1861
1833
1790
1755
1738
1745
1743
1739
1724
1735
1734
1728
1733
1719
1742
1719
1730
1747
1744
1730
1733
1738
1763
1796
1842
1839
1828
1840
1793
1770
1754
1744
1741
1740
1725
1728
1736
1740
1768
1773
1775
1720
2099
2835
2443
1750
1584
1443
1423
1600
1685
1744
1770
1770
1797
1811
1836
1840
1860
1872
1877
1903
1905
1929
1968
2018
2034
2045
2064
2095
2064
2046
2015
1991
1926
1869
1848
1829
1811
1808
1790
1776
1790
1796
1802
1794
1795
1792
1787
1811
1809
1819
1799
1821
1877
1880
1910
1913
1909
1891
1867
1840
1838
1822
1806
1798
1792
1796
1799
1813
1810
1838
1845
1827
2240
2950
2483
1825
1676
1556
1494
1668
1778
1851
1877
1867
1878
1895
1917
1937
1964
1978
1994
2011
2018
2045
2086
2090
2102
2133
2137
2142
2149
2126
2079
2031
1976
1959
1945
1919
1875
1843
1842
1843
1849
1861
1860
1849
1833
1840
1840
1835
1840
1840
1840
1859
1894
1923
1925
1947
1950
1939
1896
1861
1844
1822
1792
1794
1789
1801
1801
1808
1808
1808
1859
1773
1967
2719
2738
1956
1660
1531
1455
1627
1754
1808
1815
1818
1857
1840
1863
1875
1862
1872
1897
1919
1950
1968
1973
2003
2039
2069
2077
2079
2031
1959
1936
1911
1891
1840
1806
1791
1779
1767
1773
1767
1779
1767
1776
1788
1774
1783
1780
1782
1789
1777
1769
1789
1821
1849
1846
1869
1887
1868
1826
1806
1810
1784
1778
1759
1729
1737
1748
1736
1738
1755
1803
1767
1813
2443
2903
2187
1666
1535
1381
1509
1659
1745
1761
1773
1786
1810
1811
1842
1855
1863
1872
1904
1904
1903
1936
1968
1995
2017
2041
2064
2079
2076
2047
1979
1921
1887
1835
1787
1776
1778
1786
1791
1782
1779
1778
1767
1768
1767
1777
1769
1784
1797
1803
1792
1789
1801
1787
1798
1791
1840
1857
1872
1904
1895
1879
1840
1810
1806
1799
1757
1745
1763
1755
1719
1743
1774
1783
1775
1719
2101
2881
2532
1798
1605
1421
1427
1594
1700
1724
1742
1764
1785
1787
1792
1807
1836
1866
1856
1856
1871
1918
1941
1965
1993
2001
2015
2029
2034
2023
1982
1938
1891
1834
1791
1758
1741
1735
1729
1725
1738
1738
1730
1730
1745
1738
1713
1718
1744
1751
1729
1717
1728
1712
1727
1744
1737
1756
1801
1822
1847
1863
1874
65
1814
1821
1789
1773
1776
1792
1772
1758
1744
1759
1760
1794
1775
1794
2413
2932
2236
1684
1585
1431
1535
1675
1754
1790
1805
1825
1841
1846
1859
1872
1883
1882
1893
1925
1954
1978
2011
2041
2047
2066
2075
2097
2100
2064
2015
1981
1945
1886
1845
1825
1811
1808
1805
1801
1792
1789
1794
1805
1797
1795
1805
1815
1808
1801
1819
1855
1871
1875
1904
1909
1894
1859
1839
1809
1790
1793
1796
1791
1788
1791
1806
1811
1811
1847
1765
1964
2738
2717
1991
1682
1534
1457
1618
1744
1782
1806
1817
1839
1830
1843
1867
1862
1886
1922
1930
1943
1984
2021
2038
2061
2029
2005
2032
2047
2039
2006
1968
1937
1887
1834
1812
1803
1787
1792
1776
1776
1786
1779
1777
1794
1789
1792
1782
1793
1793
1805
1801
1794
1792
1804
1849
1866
1890
1885
1903
1897
1847
1835
1808
1798
1774
1763
1791
1800
1783
1781
1786
1830
1803
1821
2398
2876
2234
1727
1610
1435
1535
1697
1783
1808
1811
1821
1839
1863
1858
1872
1885
1881
1904
1930
1972
1997
2021
2031
2047
2064
2071
2087
2085
2065
2014
1968
1929
1877
1842
1827
1808
1802
1810
1803
1778
1773
1776
1776
1786
1781
1772
1779
1795
1805
1797
1795
1776
1777
1781
1776
1778
1822
1861
1856
1853
1856
1866
1842
1824
1793
1769
1762
1728
1750
1747
1763
1787
1775
1776
1810
1727
2039
2818
2502
1817
1623
1461
1456
1598
1703
1755
1776
1782
1793
1808
1805
1808
1858
1867
1854
1875
1899
1935
1939
1966
1988
2001
2032
2053
2029
2013
1993
1938
1905
1855
1808
1775
1758
1753
1745
1734
1744
1712
1711
1741
1726
1728
1735
1718
1714
1721
1749
1741
1717
1729
1758
1781
1820
1838
1845
1831
1823
1802
1777
1764
1758
1715
1712
1714
1713
1727
1737
1742
1744
1773
1712
2054
2803
2471
1744
1531
1409
1345
1521
1635
1691
1692
1739
1746
1743
1744
1789
1801
1825
1834
1827
1841
1895
1939
1955
1979
2000
2007
2015
2021
1987
1957
1936
1892
1840
1823
1791
1766
1745
1744
1761
1767
1758
1770
1775
1770
1786
1781
1789
1793
1779
1781
1810
1805
1797
1809
1834
1873
1886
1915
1914
1905
1859
1849
1831
1792
1798
1808
1798
1792
1808
1813
1827
1839
1870
1808
1930
2619
2887
2126
1711
1630
1478
1619
1751
1825
1855
1865
1891
1915
1952
1926
1925
1957
1981
1987
1984
2013
2033
2064
2096
2123
2134
2155
2160
2138
2125
2071
2032
1990
1951
1923
1904
1872
1856
1859
1856
1852
1850
1839
1829
1851
1850
1840
1831
1851
1856
1853
1830
1840
1850
1842
1872
1900
1918
1955
1947
1950
1914
1870
1851
1815
1808
1808
1792
1791
1781
1783
1793
1796
1840
1762
1918
2661
2752
2009
1658
1521
1424
1589
1699
1759
1776
1799
1809
1822
1830
1841
1855
1856
1873
1906
1923
1951
1971
1981
2025
2047
2042
2058
2070
2074
2023
1977
1939
1897
1850
1809
1787
1772
1750
1760
1750
1751
1747
1755
1761
1756
1744
1757
1776
1756
1761
1759
1770
1761
1751
1744
1743
1746
1765
1790
1825
1842
1857
1852
1858
1840
1811
1808
1788
1755
1744
1738
1748
1740
1751
1775
1771
1778
1749
1766
2362
2823
2181
1690
1587
1397
1519
1648
1733
1778
1789
1802
1806
1815
1827
1840
1871
1887
1913
1935
1950
1975
1989
2000
2032
2047
2074
2089
2091
2067
2022
1998
1948
1891
1840
1808
1813
1808
1795
1792
1791
1792
1760
1759
1799
1801
1776
1775
1776
1785
1778
1783
1806
1778
1773
1775
1783
1809
1791
1808
1854
1872
1904
1904
1885
1849
1815
1810
1806
1778
1794
1802
1789
1789
1777
1783
1791
1838
1747
1912
2665
2689
1979
1662
1507
1402
1565
1708
1755
1770
1807
1808
1814
1819
1838
1847
1856
1874
1882
1905
1941
1959
1983
2001
2007
2029
2065
2064
2027
1999
1968
1935
1882
1823
1776
1759
1751
1749
1751
1758
1767
1782
1795
1805
1793
1778
1786
1787
1795
1805
1776
1786
1790
1799
1808
1812
1829
1861
1861
1872
1893
1911
1857
1827
1796
1779
1764
1749
1737
1715
1690
1707
1701
1687
1742
1646
1798
2503
2695
1930
1534
1453
1280
1439
1555
1606
1650
1677
1674
1696
1721
1697
1737
1757
1749
1779
1802
1818
1869
1876
1894
1933
1936
1907
1946
1965
1934
1899
1867
1818
1779
1751
1742
1743
1711
1699
1725
1714
1695
1737
1757
1744
1779
1797
1774
1782
1794
1759
1781
1803
1809
1881
1901
1889
1950
1957
1915
1893
1863
1825
1818
1829
1802
1827
1824
1808
1841
1872
1862
1915
1822
2006
2755
2795
2012
1699
1599
1482
1681
1804
1853
1901
1914
1902
1911
1893
1878
1897
1887
1887
1932
1941
1941
1984
1991
2021
2069
2071
2047
2077
2076
2034
2006
1950
1901
1871
1840
1822
1833
1828
1805
1803
1791
1783
1826
1827
1781
1808
1825
1809
1834
1833
1831
1831
1815
1822
1841
1855
1891
1916
1933
1956
1981
1930
1887
1901
1856
1815
1850
1845
1821
1839
1831
1808
1840
1864
1856
1818
2187
2915
2535
1845
1669
1525
1520
1675
1803
1806
1781
1831
1847
1850
1891
1887
1898
1953
1954
1950
1991
2016
2021
2062
2082
2097
2135
2129
2125
2137
2096
2032
2015
1956
1929
1923
1913
1921
1923
1915
1937
1915
1907
1903
1899
1904
1904
1899
1904
1914
1915
1919
1901
1885
1875
1869
1899
1955
1966
1962
1963
1970
1939
1908
1877
1851
1847
1839
1808
1806
1809
1818
1808
1805
1856
1828
1806
2342
2891
2269
1738
1642
1461
1530
1665
1755
1795
1808
1835
1829
1829
1844
1846
1856
1861
1878
1902
1936
1966
1987
2005
2011
2037
2037
2039
2053
2039
2000
1952
1921
1872
1809
1776
1776
1781
1763
1748
1731
1737
1747
1754
1751
1754
1749
1747
1744
1755
1756
1734
1726
1745
1759
1749
1739
1744
1781
1808
1843
1847
1831
1847
1815
1777
1762
1746
1730
1735
1739
1744
1740
1739
1735
1730
1771
1699
1909
2679
2612
1904
1627
1458
1418
1583
1691
1744
1776
1766
1770
1807
1813
1822
1839
1856
1886
1881
1885
1907
1930
1966
1997
2013
2064
2054
2032
2012
2005
1975
1921
1861
1813
1795
1769
1753
1763
1715
1719
1741
1735
1744
1731
1728
1744
1747
1747
1773
1747
1741
1747
1756
1759
1741
1763
1799
1843
1857
1866
1885
1867
1823
1795
1776
1774
1759
1761
1749
1741
1742
1757
1761
1749
1786
1747
1823
2437
2810
2079
1613
1554
1388
1514
1664
1741
1778
1778
1788
1805
1840
1872
1885
1872
1885
1899
1924
1958
1984
2032
2066
2035
2033
2067
2095
2082
2031
2014
1981
1902
1840
1827
1821
1779
1773
1781
1754
1751
1762
1776
1767
1767
1783
1795
1787
1775
1765
1750
1751
1767
1789
1787
1782
1825
1877
1869
1904
1919
1902
1867
1847
1824
1809
1809
1793
1788
1791
1791
1789
1799
1803
1837
1810
1824
2330
2939
2287
1698
1628
1449
1521
1687
1776
1809
1840
1840
1877
1894
1899
1907
1926
1950
1971
1974
1993
2021
2055
2057
2079
2117
2137
2130
2141
2133
2096
2043
1993
1962
1919
1883
1853
1840
1838
1835
1839
1829
1825
1840
1858
1840
1829
1829
1846
1841
1829
1839
1842
1843
1842
1873
1920
1926
1935
1947
1954
1941
1887
1865
1840
1830
1834
1809
1803
1808
1813
1818
1834
1829
1860
1800
2086
2857
2634
1917
1686
1527
1503
1678
1781
1823
1828
1841
1872
1876
1888
1901
1904
1913
1921
1933
1950
1985
2014
2032
2069
2095
2110
2112
2106
2103
2072
2005
1943
1925
1867
1833
1821
1798
1792
1786
1787
1787
1796
1797
1776
1785
1807
1810
1802
1795
1797
1791
1791
1792
1799
1790
1776
1793
1799
1847
1882
1892
1903
1887
1904
1850
1823
1823
1794
1778
1791
1791
1795
1790
1790
1794
1811
1814
1745
2134
2864
2475
1839
1674
1463
1489
1648
1757
1781
1783
1806
1807
1835
1844
1846
1855
1862
1902
1931
1938
1958
1989
2004
2013
2009
2028
2016
2018
2010
1987
1961
1894
1843
1794
1771
1762
1758
1749
1750
1739
1735
1729
1727
1723
1723
1728
1724
1744
1748
1741
1723
1718
1727
1733
1733
1731
1776
1810
1808
1833
1836
1841
1807
1759
1749
1724
1711
1712
1703
1711
1709
1707
1715
1713
1737
1734
1731
2271
2839
2207
1650
1535
1371
1472
1591
1694
1729
1728
1747
1776
1791
1808
1826
1840
1823
1845
1887
1906
1946
1959
1981
2002
2029
2047
2041
2062
2002
1974
1938
1887
1840
1786
1776
1774
1745
1728
1719
1744
1739
1732
1737
1729
1723
1729
1744
1754
1743
1735
1739
1755
1749
1764
1776
1812
1809
1863
1863
1886
1839
1792
1769
1732
1730
1744
1728
1738
1755
1743
1742
1744
1777
1746
1821
2403
2833
2128
1610
1565
1386
1478
1652
1726
1759
1771
1796
1795
1810
1826
1825
1843
1867
1900
1919
1934
1968
2003
2010
2032
2053
2061
2081
2070
2035
1993
1973
1929
1894
1853
1833
1817
1799
1800
1795
1803
1811
1797
1792
1822
1838
1811
1819
1822
1819
1847
1841
1863
1875
1904
1932
1954
1951
1942
1907
1881
1852
1827
1845
1825
1810
1804
1797
1811
1817
1837
1858
1815
1893
2541
2919
2173
1701
1616
1456
1603
1761
1821
1840
1865
1882
1886
1905
1920
1929
1934
1941
1945
1979
2003
2000
2032
2075
2096
2099
2121
2119
2112
2089
2041
1991
1932
1895
1861
1847
1841
1812
1821
1812
1800
1802
1795
1812
1823
1826
1814
1796
1783
1793
1814
1819
1822
1846
1865
1893
1926
1942
1969
1965
1957
1918
1889
1869
1855
1834
1809
1793
1799
1808
1813
1823
1840
1872
1790
2014
2800
2717
1968
1706
1535
1488
1659
1776
1837
1838
1850
1863
1881
1874
1878
1897
1909
1924
1933
1959
1979
1995
2029
2064
2070
2086
2081
2073
2077
2055
2005
1945
1893
1857
1826
1808
1794
1790
1773
1767
1759
1767
1777
1776
1775
1775
1778
1793
1785
1766
1779
1766
1723
1681
1689
1734
1755
1765
1776
1776
1788
1759
1730
1716
1698
1701
1694
1703
1710
1710
1710
1707
1729
1744
1695
2032
2811
2452
1770
1591
1410
1437
1594
1701
1734
1742
1759
1776
1803
1798
1814
1821
1837
1863
1876
1901
1926
1948
1954
1963
1987
2015
2032
2031
2013
1984
1936
1877
1838
1805
1759
1731
1747
1746
1745
1722
1735
1739
1744
1728
1733
1745
1751
1751
1715
1717
1742
1744
1740
1746
1772
1793
1802
1820
1826
1856
1840
1774
1767
1750
1734
1737
1744
1741
1734
1738
1746
1744
1773
1718
1829
2476
2801
2096
1648
1554
1379
1505
1660
1739
1735
1766
1789
1762
1787
1811
1831
1843
1869
1870
1900
1915
1936
1961
2006
2028
2023
2074
2079
2027
2005
1985
1946
1873
1817
1808
1776
1757
1754
1754
1755
1743
1757
1762
1765
1755
1739
1762
1771
1761
1767
1774
1795
1806
1808
1855
1873
1929
1925
1904
1882
1855
1840
1824
1807
1798
1799
1790
1794
1801
1826
1815
1858
1813
1900
2531
2934
2165
1690
1609
1440
1566
1744
1846
1834
1841
1872
1884
1901
1904
1919
1937
1946
1950
1989
1999
2031
2046
2075
2097
2109
2103
2112
2103
2072
2042
2007
1968
1908
1871
1841
1819
1823
1821
1809
1803
1808
1806
1807
1808
1803
1809
1818
1811
1809
1830
1825
1819
1847
1874
1882
1904
1935
1918
1924
1904
1869
1843
1830
1807
1800
1815
1813
1821
1809
1808
1819
1856
1785
1907
2636
2826
2055
1675
1535
1450
1598
1718
1784
1813
1819
1845
1854
1863
1872
1898
1894
1923
1941
1956
1969
1993
2015
2025
2034
2073
2086
2087
2080
2055
2027
1987
1931
1877
1838
1808
1805
1789
1792
1790
1787
1805
1816
1792
1783
1776
1772
1793
1783
1780
1788
1799
1805
1798
1797
1802
1818
1869
1877
1891
1875
1889
1899
1847
1834
1809
1785
1777
1779
1789
1793
1787
1766
1758
1804
1809
1760
2195
2908
2419
1790
1650
1459
1505
1659
1752
1777
1806
1806
1819
1840
1861
1872
1872
1872
1885
1900
1931
1969
1999
1995
2007
2042
2065
2043
2026
2019
2000
1957
1915
1872
1815
1776
1764
1763
1762
1744
1739
1723
1727
1733
1755
1755
1761
1757
1734
1728
1741
1738
1733
1744
1767
1757
1744
1790
1815
1795
1830
1844
1870
1809
1776
1751
1744
1730
1732
1759
1751
1739
1727
1747
1759
1790
1680
1859
2591
2654
1904
1554
1433
1334
1486
1616
1713
1706
1713
1738
1743
1766
1777
1785
1805
1838
1840
1872
1889
1908
1929
1955
1995
2017
2002
2006
1991
2006
1949
1897
1870
1824
1771
1742
1727
1711
1712
1730
1726
1712
1712
1730
1745
1712
1715
1729
1759
1765
1744
1722
1743
1771
1782
1802
1837
1873
1865
1879
1850
1821
1787
1772
1755
1759
1762
1773
1765
1757
1763
1770
1791
1774
1797
2342
2871
2208
1663
1590
1414
1489
1659
1744
1787
1799
1825
1823
1837
1847
1840
1854
1859
1856
1894
1923
1921
1968
1987
1995
2031
2028
2011
2002
1950
1894
1873
1834
1776
1747
1718
1714
1729
1697
1692
1721
1718
1715
1751
1759
1735
1760
1746
1733
1775
1773
1792
1817
1798
1792
1840
1870
1894
1943
1910
1893
1888
1854
1840
1840
1822
1791
1815
1806
1810
1826
1830
1853
1901
1794
1919
2682
2832
2069
1733
1622
1491
1663
1766
1853
1901
1886
1902
1922
1935
1943
1969
1965
2000
2027
2027
2034
2071
2091
2123
2159
2130
2135
2161
2150
2108
2078
2016
1973
1957
1904
1853
1859
1857
1839
1853
1845
1837
1839
1821
1847
1857
1839
1825
1840
1825
1839
1875
1845
1824
1840
1877
1908
1922
1923
1903
1910
1878
1868
1872
1839
1808
1830
1813
1802
1808
1812
1818
1839
1855
1769
1904
2613
2798
2092
1697
1563
1457
1593
1719
1805
1832
1822
1847
1854
1870
1889
1879
1889
1934
1926
1946
1990
1985
1997
2053
2042
2047
2087
2090
2083
2064
1996
1949
1934
1862
1806
1791
1792
1805
1805
1787
1774
1780
1764
1765
1814
1773
1778
1795
1783
1758
1761
1725
1744
1777
1808
1824
1849
1872
1909
1921
1936
1936
1953
1909
1904
1893
1861
1861
1872
1888
1857
1828
1851
1861
1850
1872
1819
2065
2832
2655
1942
1693
1529
1462
1648
1784
1791
1812
1812
1829
1857
1845
1838
1860
1882
1907
1892
1914
1952
1958
1975
2005
2023
2032
2039
2037
2045
1989
1946
1905
1857
1824
1791
1765
1755
1759
1751
1744
1734
1729
1735
1741
1744
1742
1743
1738
1731
1753
1747
1739
1750
1763
1761
1791
1812
1847
1875
1865
1887
1835
1833
1835
1805
1817
1830
1773
1759
1791
1813
1815
1808
1845
1777
2002
2750
2718
1941
1638
1520
1441
1600
1698
1771
1792
1809
1812
1839
1840
1853
1866
1872
1885
1910
1942
1986
2001
2020
2031
2063
2069
2074
2096
2073
2036
1984
1955
1923
1884
1808
1803
1803
1789
1749
1776
1779
1789
1781
1777
1785
1808
1807
1791
1791
1777
1775
1798
1806
1808
1859
1878
1879
1914
1917
1903
1843
1826
1836
1791
1793
1776
1781
1759
1771
1799
1776
1787
1854
1805
1877
2557
2841
2079
1653
1533
1431
1584
1722
1804
1808
1805
1819
1843
1856
1870
1893
1911
1910
1930
1943
1975
2017
2031
2035
2073
2094
2079
2096
2093
2045
2011
1952
1897
1867
1839
1821
1798
1792
1766
1761
1776
1750
1744
1757
1769
1759
1774
1780
1776
1770
1783
1792
1762
1764
1778
1783
1763
1766
1777
1821
1861
1889
1866
1870
1890
1853
1821
1793
1789
1774
1781
1781
1793
1797
1798
1787
1801
1819
1776
2133
2818
2427
1813
1670
1481
1487
1647
1767
1806
1799
1809
1840
1850
1862
1887
1889
1915
1917
1930
1954
1967
1978
2003
2013
2042
2071
2064
2062
2062
2011
1968
1939
1875
1836
1805
1803
1794
1759
1769
1767
1759
1766
1787
1791
1782
1750
1757
1776
1771
1776
1785
1795
1813
1776
1790
1802
1815
1855
1881
1870
1898
1906
1968
1919
1858
1853
1870
1878
1861
1840
1834
1841
1834
1842
1846
1899
1838
1867
2458
2843
2159
1731
1616
1421
1573
1721
1766
1764
1808
1827
1838
1842
1858
1872
1882
1889
1903
1906
1942
1964
1986
2023
2021
2033
2047
2045
2056
2035
1985
1914
1877
1837
1794
1773
1744
1747
1745
1723
1729
1709
1719
1722
1718
1727
1741
1734
1725
1753
1744
1712
1718
1743
1711
1717
1723
1735
1739
1755
1798
1809
1811
1809
1840
1823
1786
1781
1757
1721
1693
1715
1738
1727
1721
1741
1738
1797
1734
1939
2709
2667
1897
1584
1466
1378
1535
1681
1751
1779
1771
1791
1813
1830
1840
1853
1862
1871
1881
1882
1933
1949
1959
1988
2027
2055
2042
2033
2043
2006
1953
1909
1854
1834
1819
1767
1750
1758
1757
1747
1734
1747
1742
1739
1735
1733
1737
1745
1764
1775
1774
1775
1762
1785
1796
1830
1870
1921
1920
1898
1860
1846
1840
1839
1831
1789
1789
1811
1809
1803
1806
1827
1871
1801
1986
2709
2750
1954
1627
1522
1441
1601
1733
1809
1849
1849
1859
1881
1897
1909
1915
1930
1938
1961
1981
2000
2047
2089
2091
2112
2130
2128
2128
2115
2086
2025
1959
1923
1882
1851
1841
1840
1831
1837
1821
1808
1814
1805
1776
1759
1776
1808
1829
1813
1790
1795
1818
1815
1817
1831
1843
1873
1863
1890
1904
1904
1858
1834
1826
1807
1791
1785
1785
1783
1761
1775
1789
1805
1826
1760
1887
2602
2832
2058
1657
1535
1466
1594
1702
1782
1809
1835
1833
1841
1855
1888
1903
1917
1927
1920
1921
1938
1983
2007
2030
2062
2091
2112
2096
2075
2062
2015
1963
1907
1877
1840
1805
1776
1785
1786
1783
1783
1765
1765
1781
1766
1759
1762
1769
1802
1799
1774
1767
1776
1791
1791
1783
1781
1807
1853
1856
1862
1873
1905
1877
1830
1818
1806
1795
1782
1761
1769
1789
1782
1773
1769
1814
1766
1805
2440
2859
2181
1730
1598
1436
1535
1686
1808
1838
1802
1801
1846
1869
1847
1863
1896
1906
1904
1934
1963
1966
1985
2007
2042
2059
2093
2098
2092
2077
2017
1962
1901
1850
1795
1798
1775
1753
1775
1786
1744
1731
1751
1745
1745
1757
1735
1750
1787
1751
1729
1767
1728
1740
1741
1762
1767
1808
1828
1843
1861
1872
1852
1817
1766
1769
1776
1750
1751
1747
1731
1727
1735
1743
1745
1765
1733
2132
2838
2384
1699
1563
1410
1389
1584
1702
1749
1757
1776
1813
1808
1819
1838
1844
1856
1879
1888
1898
1935
1965
2000
2016
2017
2063
2079
2064
2065
1990
1920
1874
1842
1793
1730
1718
1709
1713
1711
1712
1712
1701
1696
1722
1742
1734
1728
1739
1767
1763
1744
1741
1767
1813
1840
1834
1870
1901
1888
1847
1837
1834
1807
1786
1787
1793
1785
1760
1765
1802
1807
1798
1820
1814
2274
2959
2379
1729
1613
1457
1519
1687
1776
1811
1842
1872
1872
1873
1909
1923
1918
1923
1951
1967
1971
2015
2062
2082
2099
2151
2170
2158
2129
2107
2091
2046
1981
1928
1895
1869
1853
1856
1845
1846
1846
1835
1840
1846
1827
1814
1840
1838
1844
1847
1842
1845
1834
1833
1861
1895
1916
1904
1918
1936
1952
1899
1862
1843
1826
1815
1824
1820
1827
1830
1808
1811
1819
1870
1817
1967
2688
2822
2041
1712
1599
1479
1639
1759
1817
1832
1849
1870
1891
1894
1893
1919
1936
1957
1982
1975
1999
2032
2059
2095
2128
2160
2151
2157
2128
2087
2047
1997
1922
1884
1845
1826
1826
1809
1822
1834
1814
1807
1808
1796
1802
1808
1798
1791
1785
1792
1795
1799
1791
1787
1787
1798
1794
1793
1808
1848
1868
1895
1883
1872
1856
1831
1815
1807
1791
1776
1777
1776
1760
1776
1785
1775
1808
1807
1779
2263
2909
2353
1751
1611
1435
1527
1674
1776
1786
1789
1801
1808
1821
1856
1866
1875
1911
1904
1914
1939
1990
2015
2032
2052
2064
2090
2112
2096
2071
2030
1985
1951
1895
1844
1821
1809
1817
1809
1783
1774
1771
1777
1792
1794
1774
1771
1777
1792
1774
1776
1781
1778
1776
1776
1767
1781
1779
1771
1779
1813
1840
1866
1853
1846
1840
1807
1801
1761
1737
1744
1744
1731
1727
1737
1741
1756
1783
1780
1745
2229
2838
2297
1707
1562
1389
1461
1633
1722
1754
1770
1773
1794
1814
1802
1798
1815
1843
1851
1869
1895
1920
1936
1988
2001
2002
2015
2029
2034
1987
1945
1931
1875
1815
1782
1762
1728
1728
1712
1712
1705
1707
1680
1685
1687
1715
1742
1712
1699
1710
1712
1723
1727
1744
1697
1691
1715
1731
1760
1782
1821
1846
1845
1857
1821
1801
1780
1754
1733
1743
1754
1761
1738
1735
1750
1755
1798
1779
1793
2315
2897
2233
1655
1601
1431
1494
1664
1756
1795
1809
1829
1845
1872
1894
1877
1887
1930
1934
1938
1979
2001
2045
2077
2078
2092
2107
2115
2123
2099
2064
2022
1982
1927
1901
1870
1857
1843
1840
1846
1857
1852
1849
1841
1857
1858
1850
1846
1873
1890
1869
1851
1873
1885
1872
1894
1923
1953
1967
2006
1982
1973
1941
1925
1915
1877
1867
1872
1875
1868
1867
1871
1876
1871
1910
1891
1946
2540
2992
2245
1766
1682
1520
1637
1779
1887
1893
1901
1919
1926
1929
1927
1941
1969
1979
1984
1989
2023
2047
2074
2099
2119
2139
2131
2145
2155
2131
2082
2017
1967
1915
1883
1872
1845
1835
1831
1808
1805
1807
1795
1801
1808
1805
1789
1792
1802
1799
1803
1787
1783
1808
1808
1776
1779
1788
1818
1884
1881
1883
1890
1888
1840
1809
1808
1775
1775
1779
1771
1776
1770
1773
1778
1776
1815
1738
1926
2691
2689
1949
1643
1493
1415
1584
1701
1773
1787
1799
1797
1810
1827
1834
1849
1853
1846
1862
1885
1889
1920
1934
1957
1989
2000
2016
2013
1989
1962
1911
1837
1783
1733
1681
1664
1664
1661
1654
1665
1651
1648
1658
1641
1659
1690
1677
1666
1663
1647
1663
1700
1686
1695
1705
1680
1681
1749
1784
1801
1815
1789
1808
1791
1776
1766
1762
1728
1743
1763
1744
1745
1775
1749
1776
1825
1723
1939
2723
2608
1920
1695
1509
1456
1632
1728
1780
1809
1801
1818
1856
1856
1861
1894
1887
1894
1919
1933
1943
1971
2000
2007
2059
2065
2085
2103
2065
2027
2027
1946
1901
1872
1813
1802
1804
1777
1776
1806
1777
1765
1766
1765
1774
1795
1764
1766
1775
1778
1792
1806
1770
1766
1774
1767
1776
1797
1789
1821
1841
1856
1840
1869
1847
1811
1811
1762
1755
1770
1765
1757
1771
1741
1738
1754
1803
1731
1708
2246
2674
2001
1484
1374
1159
1248
1391
1475
1533
1535
1475
1506
1606
1679
1769
1791
1840
1909
1930
1919
1997
2064
2063
2112
2131
2141
2176
2165
2128
2112
2064
1983
1966
1914
1870
1875
1857
1846
1841
1839
1808
1821
1837
1815
1840
1840
1827
1837
1840
1809
1840
1881
1885
1884
1907
1927
1968
1968
2016
2015
2000
1975
1940
1927
1918
1904
1882
1873
1882
1871
1850
1859
1865
1890
1868
1907
2496
2989
2224
1708
1637
1441
1509
1663
1771
1793
1798
1834
1851
1855
1842
1865
1903
1915
1920
1929
1946
1978
2004
2006
2035
2044
2073
2076
2071
2065
2028
1957
1882
1870
1845
1783
1763
1767
1750
1742
1744
1764
1754
1744
1740
1759
1769
1749
1750
1761
1762
1753
1767
1776
1762
1753
1802
1815
1853
1873
1847
1835
1802
1783
1778
1774
1742
1738
1731
1733
1728
1765
1760
1786
1799
1744
2111
2834
2413
1734
1606
1441
1431
1589
1715
1779
1791
1799
1778
1806
1846
1866
1873
1889
1894
1900
1922
1961
1983
2000
2014
2034
2058
2077
2065
2042
2013
1965
1920
1896
1846
1806
1783
1779
1789
1789
1783
1763
1758
1764
1767
1778
1791
1771
1761
1776
1788
1788
1786
1766
1773
1808
1830
1822
1840
1840
1839
1807
1787
1784
1787
1785
1779
1771
1771
1776
1782
1762
1755
1826
1790
1847
2507
2834
2128
1694
1578
1415
1573
1715
1791
1796
1807
1835
1847
1836
1854
1873
1887
1904
1918
1943
1978
1985
2017
2035
2057
2070
2083
2085
2081
2072
2032
1969
1911
1872
1834
1813
1829
1807
1779
1790
1791
1777
1789
1793
1787
1786
1784
1788
1783
1783
1774
1779
1775
1778
1775
1785
1802
1845
1862
1879
1895
1886
1879
1840
1829
1809
1799
1794
1787
1776
1783
1780
1782
1787
1806
1815
1759
2109
2836
2452
1837
1660
1452
1489
1648
1748
1771
1784
1806
1819
1846
1866
1867
1856
1863
1876
1901
1922
1947
2001
2014
2020
2045
2066
2086
2107
2096
2044
1981
1935
1875
1840
1811
1783
1781
1775
1779
1767
1747
1755
1745
1759
1771
1767
1759
1754
1774
1759
1757
1767
1767
1762
1758
1770
1794
1808
1827
1845
1856
1840
1804
1779
1762
1744
1735
1737
1731
1741
1729
1712
1718
1776
1757
1742
2257
2830
2223
1670
1583
1374
1441
1615
1713
1731
1733
1749
1766
1793
1803
1828
1859
1864
1861
1887
1920
1919
1949
1979
2000
2002
2018
2047
2047
2010
1897
1828
1825
1808
1757
1733
1738
1735
1747
1744
1728
1723
1733
1744
1737
1730
1737
1741
1744
1744
1733
1741
1763
1762
1758
1807
1831
1847
1886
1869
1870
1825
1805
1793
1783
1777
1760
1751
1754
1754
1751
1770
1785
1817
1749
1968
2717
2679
1897
1616
1529
1395
1570
1707
1769
1779
1808
1817
1847
1859
1882
1895
1884
1901
1920
1946
1973
2000
2041
2062
2057
2086
2111
2105
2086
2043
2013
1953
1927
1878
1808
1797
1806
1798
1791
1761
1766
1776
1776
1785
1782
1786
1782
1782
1773
1786
1799
1798
1815
1855
1883
1904
1931
1957
1950
1931
1904
1869
1854
1827
1820
1821
1827
1817
1813
1818
1823
1824
1857
1783
1984
2741
2737
1968
1664
1535
1458
1621
1735
1812
1813
1835
1854
1872
1881
1887
1903
1915
1923
1942
1979
1989
2007
2037
2046
2064
2063
2093
2103
2095
2055
2002
1961
1902
1845
1801
1781
1769
1768
1761
1775
1778
1771
1759
1766
1782
1776
1770
1786
1779
1759
1765
1782
1781
1793
1805
1807
1808
1830
1856
1854
1874
1872
1887
1856
1823
1811
1793
1766
1769
1775
1767
1757
1756
1766
1773
1825
1757
1861
2559
2774
2047
1694
1535
1418
1584
1705
1771
1777
1802
1824
1847
1840
1849
1868
1855
1878
1908
1925
1953
1969
2000
2014
2042
2081
2077
2079
2084
2064
2032
1983
1921
1866
1822
1806
1803
1798
1783
1770
1767
1761
1761
1763
1775
1776
1775
1776
1771
1771
1767
1776
1777
1771
1763
1778
1791
1794
1834
1855
1840
1871
1872
1874
1840
1819
1792
1776
1771
1772
1781
1788
1787
1782
1793
1786
1840
1773
1872
2554
2768
2046
1694
1553
1408
1565
1691
1763
1775
1792
1807
1808
1808
1851
1856
1875
1881
1893
1913
1937
1947
1947
2000
2042
2039
2064
2053
2064
2035
1968
1937
1875
1850
1794
1761
1769
1750
1755
1743
1728
1725
1744
1745
1731
1731
1734
1728
1743
1737
1729
1736
1745
1751
1741
1744
1758
1744
1747
1787
1823
1843
1839
1859
1859
1820
1790
1760
1773
1792
1776
1741
1731
1751
1745
1745
1779
1808
1744
2105
2862
2512
1802
1603
1438
1424
1614
1719
1760
1781
1786
1808
1828
1830
1840
1841
1856
1885
1908
1921
1935
1980
2013
2029
2064
2067
2067
2064
2065
2017
1968
1926
1886
1840
1808
1776
1783
1776
1747
1749
1759
1765
1759
1763
1757
1767
1790
1792
1783
1792
1786
1798
1807
1788
1776
1777
1824
1859
1883
1910
1917
1891
1842
1839
1808
1779
1776
1776
1767
1771
1782
1792
1808
1807
1846
1827
1840
2370
2944
2298
1739
1661
1478
1535
1707
1823
1825
1837
1872
1887
1894
1907
1932
1936
1937
1952
1984
2003
2017
2055
2078
2099
2127
2145
2145
2154
2123
2069
2031
1984
1952
1905
1866
1853
1845
1830
1815
1816
1821
1815
1809
1817
1827
1837
1822
1813
1815
1825
1810
1833
1819
1815
1811
1826
1823
1833
1872
1897
1913
1914
1905
1908
1867
1846
1840
1809
1793
1779
1782
1804
1790
1791
1802
1827
1833
1746
2128
2881
2443
1788
1634
1458
1461
1617
1739
1779
1809
1821
1840
1849
1840
1847
1872
1891
1896
1921
1939
1943
1984
2019
2024
2057
2059
2063
2054
2034
2000
1981
1935
1885
1840
1808
1782
1776
1767
1749
1734
1729
1733
1763
1763
1773
1770
1763
1761
1744
1763
1779
1759
1753
1773
1789
1787
1775
1789
1797
1840
1850
1867
1864
1873
1843
1811
1789
1763
1762
1769
1759
1762
1751
1749
1746
1754
1787
1741
1779
2388
2815
2157
1702
1584
1411
1535
1671
1759
1808
1809
1799
1818
1831
1847
1877
1903
1915
1904
1914
1940
1968
2005
2024
2029
2065
2097
2099
2090
2076
2035
1979
1919
1874
1855
1810
1794
1803
1801
1773
1760
1769
1783
1773
1763
1749
1750
1755
1755
1747
1751
1728
1730
1735
1722
1743
1745
1747
1777
1819
1822
1833
1830
1863
1840
1808
1781
1748
1745
1744
1719
1718
1712
1707
1699
1721
1763
1744
1701
2131
2832
2343
1703
1559
1375
1400
1584
1680
1728
1741
1733
1762
1791
1798
1825
1850
1856
1872
1877
1888
1914
1939
1968
2000
2020
2054
2067
2078
2062
1986
1954
1893
1836
1800
1766
1742
1742
1744
1747
1742
1712
1735
1744
1750
1755
1746
1731
1761
1769
1754
1749
1754
1765
1745
1734
1792
1806
1808
1846
1867
1857
1856
1813
1799
1781
1763
1763
1743
1745
1739
1750
1745
1751
1771
1793
1747
2075
2832
2510
1782
1591
1458
1393
1598
1697
1737
1767
1765
1776
1818
1847
1841
1871
1868
1872
1887
1925
1965
1967
1984
2014
2046
2077
2070
2067
2046
2021
2003
1962
1882
1843
1822
1783
1781
1776
1760
1760
1762
1777
1784
1776
1783
1775
1775
1791
1792
1808
1807
1807
1806
1827
1867
1890
1905
1914
1904
1890
1865
1839
1837
1807
1803
1786
1777
1792
1794
1794
1806
1808
1846
1788
1953
2688
2782
2010
1674
1563
1442
1614
1732
1808
1823
1841
1856
1854
1883
1902
1904
1919
1935
1952
1974
2000
2035
2054
2096
2125
2115
2128
2147
2134
2105
2063
2009
1951
1921
1867
1832
1840
1826
1821
1815
1810
1808
1808
1807
1795
1808
1827
1814
1808
1815
1808
1824
1831
1826
1840
1875
1897
1927
1931
1946
1908
1874
1847
1823
1808
1804
1821
1813
1808
1808
1815
1823
1824
1822
1777
2169
2896
2449
1815
1663
1489
1503
1643
1747
1808
1814
1801
1809
1840
1860
1872
1882
1872
1886
1888
1907
1939
1968
1955
2000
2021
2013
2023
2013
1962
1947
1914
1840
1795
1755
1717
1687
1689
1657
1672
1683
1666
1665
1668
1675
1709
1721
1693
1716
1727
1693
1711
1733
1733
1747
1763
1773
1813
1819
1856
1860
1872
1807
1794
1792
1775
1782
1787
1785
1785
1793
1794
1810
1825
1851
1792
1845
2471
2876
2209
1749
1642
1490
1591
1741
1838
1829
1840
1872
1876
1889
1913
1905
1933
1934
1940
1984
2011
2010
2061
2085
2090
2112
2154
2130
2110
2115
2095
2030
1965
1905
1883
1882
1824
1796
1813
1798
1808
1833
1789
1803
1825
1807
1818
1823
1796
1795
1807
1771
1788
1818
1806
1824
1829
1840
1885
1886
1877
1889
1861
1813
1810
1803
1759
1767
1779
1771
1776
1780
1765
1802
1808
1729
2067
2828
2463
1792
1625
1453
1425
1603
1714
1777
1790
1778
1802
1811
1809
1857
1887
1866
1865
1898
1910
1936
1991
2004
2023
2032
2027
2047
2078
2038
2017
1971
1905
1847
1831
1781
1765
1759
1748
1762
1754
1719
1759
1764
1743
1750
1744
1751
1771
1773
1755
1765
1778
1777
1808
1856
1894
1941
1949
1941
1903
1878
1872
1862
1822
1831
1831
1830
1842
1845
1840
1823
1863
1835
2003
2720
2792
1971
1637
1579
1475
1645
1775
1833
1846
1872
1874
1888
1903
1906
1908
1927
1942
1969
1979
1995
2031
2045
2069
2090
2109
2098
2103
2083
2059
2007
1945
1901
1857
1825
1825
1807
1794
1775
1741
1727
1700
1708
1729
1737
1755
1757
1766
1770
1776
1786
1786
1773
1776
1811
1846
1861
1898
1890
1856
1820
1821
1799
1776
1754
1742
1754
1738
1723
1743
1741
1750
1774
1712
1985
2757
2604
1837
1591
1419
1382
1581
1709
1743
1729
1760
1797
1791
1801
1811
1818
1831
1851
1853
1878
1929
1945
1950
1984
2028
2044
2071
2062
2015
1982
1940
1915
1859
1810
1791
1766
1757
1734
1743
1731
1714
1727
1723
1723
1726
1747
1730
1731
1739
1726
1738
1743
1758
1745
1754
1801
1811
1834
1832
1831
1810
1783
1755
1733
1739
1748
1724
1713
1726
1718
1731
1741
1786
1783
1745
2203
2883
2366
1757
1618
1442
1497
1646
1751
1810
1814
1839
1846
1857
1872
1879
1894
1920
1939
1969
1981
1986
2011
2021
2061
2096
2126
2129
2128
2097
2047
2009
1969
1905
1874
1854
1840
1834
1809
1809
1803
1798
1795
1799
1802
1790
1795
1795
1795
1813
1818
1791
1797
1814
1799
1763
1776
1803
1820
1845
1861
1883
1897
1911
1889
1856
1826
1808
1788
1781
1767
1766
1767
1787
1787
1783
1802
1815
1733
2091
2846
2482
1806
1616
1451
1451
1600
1713
1772
1797
1795
1818
1834
1827
1829
1826
1841
1863
1881
1897
1939
1974
1984
1987
2038
2065
2045
2055
2032
2003
1953
1915
1854
1815
1789
1750
1732
1719
1730
1712
1691
1687
1703
1703
1724
1714
1712
1695
1706
1726
1731
1712
1695
1730
1747
1776
1789
1831
1867
1840
1814
1791
1780
1753
1728
1725
1727
1731
1712
1696
1714
1717
1711
1747
1702
1923
2655
2617
1852
1535
1438
1357
1527
1647
1729
1747
1776
1795
1787
1821
1849
1843
1823
1843
1903
1905
1919
1959
1989
1996
2018
2035
2066
2061
2038
2001
1958
1926
1885
1815
1774
1779
1782
1755
1750
1757
1755
1757
1753
1771
1796
1783
1766
1758
1775
1778
1791
1792
1805
1818
1851
1867
1925
1933
1913
1881
1830
1821
1815
1821
1792
1775
1779
1776
1775
1776
1790
1827
1845
1776
2143
2907
2530
1798
1627
1474
1459
1657
1785
1827
1838
1849
1872
1872
1874
1888
1895
1889
1897
1933
1969
1984
2000
2046
2085
2092
2099
2111
2098
2115
2064
1999
1949
1922
1879
1851
1840
1828
1829
1823
1808
1837
1823
1789
1806
1821
1840
1838
1841
1849
1838
1846
1858
1861
1862
1905
1922
1951
1947
1949
1905
1890
1876
1840
1825
1841
1833
1815
1811
1818
1814
1818
1870
1850
1840
2394
2964
2318
1767
1670
1497
1587
1712
1808
1835
1833
1846
1867
1872
1882
1904
1910
1929
1935
1931
1956
1985
2006
2045
2081
2081
2090
2105
2094
2078
2032
1979
1927
1869
1823
1802
1795
1794
1776
1786
1790
1767
1763
1783
1797
1770
1756
1783
1779
1779
1776
1792
1806
1776
1797
1825
1839
1829
1866
1862
1869
1857
1823
1817
1790
1782
1783
1771
1763
1769
1770
1755
1742
1786
1786
1764
2256
2860
2284
1744
1600
1404
1502
1648
1728
1762
1792
1811
1818
1829
1843
1856
1862
1895
1915
1914
1934
1958
1979
2010
2032
2046
2074
2105
2089
2060
2027
1985
1919
1856
1817
1791
1777
1781
1772
1757
1762
1754
1745
1749
1765
1761
1745
1749
1756
1729
1743
1745
1765
1770
1758
1771
1811
1813
1834
1853
1840
1827
1786
1765
1756
1750
1728
1724
1735
1753
1730
1702
1713
1751
1753
1740
2207
2848
2299
1669
1535
1411
1444
1584
1690
1731
1758
1789
1788
1777
1783
1809
1839
1859
1883
1897
1879
1919
1953
1967
2015
2055
2036
2037
2061
2038
1982
1937
1911
1834
1790
1761
1743
1762
1776
1759
1751
1739
1735
1728
1727
1745
1756
1744
1760
1767
1774
1753
1746
1769
1767
1808
1821
1856
1871
1856
1858
1799
1781
1763
1760
1760
1754
1748
1754
1770
1776
1770
1776
1840
1755
2019
2783
2651
1862
1620
1511
1456
1607
1727
1785
1817
1835
1847
1854
1873
1872
1882
1893
1922
1929
1950
1978
1998
2012
2059
2083
2079
2096
2092
2092
2064
1989
1955
1906
1837
1810
1809
1802
1778
1776
1789
1791
1792
1797
1789
1778
1795
1807
1793
1816
1808
1792
1803
1799
1830
1840
1863
1895
1931
1915
1910
1850
1827
1823
1796
1792
1782
1793
1781
1792
1788
1794
1800
1833
1799
1844
2475
2928
2215
1694
1581
1431
1567
1708
1790
1813
1820
1839
1867
1877
1899
1901
1911
1904
1919
1946
1970
2006
2035
2047
2065
2066
2093
2109
2103
2076
2035
1988
1911
1839
1795
1778
1779
1762
1758
1766
1766
1782
1773
1761
1787
1799
1792
1799
1790
1767
1765
1787
1798
1782
1776
1781
1793
1817
1844
1849
1875
1869
1889
1866
1832
1808
1789
1805
1797
1771
1769
1773
1778
1787
1779
1809
1776
1782
2380
2895
2251
1741
1613
1421
1533
1693
1773
1787
1808
1827
1825
1829
1872
1872
1887
1895
1905
1921
1939
1974
1990
2019
2037
2070
2095
2098
2087
2080
2026
1966
1916
1872
1823
1794
1776
1778
1777
1759
1776
1789
1776
1746
1767
1795
1773
1757
1750
1772
1762
1744
1745
1765
1775
1780
1781
1769
1773
1803
1831
1846
1866
1867
1901
1872
1829
1808
1787
1774
1766
1763
1781
1758
1758
1775
1790
1829
1737
1929
2707
2638
1936
1649
1507
1439
1576
1678
1757
1773
1792
1808
1821
1828
1829
1856
1856
1871
1886
1903
1939
1958
1968
1993
2029
2059
2057
2064
2058
2035
1974
1913
1869
1838
1783
1751
1751
1746
1757
1743
1734
1761
1744
1729
1743
1731
1735
1733
1744
1735
1719
1747
1742
1712
1743
1771
1754
1787
1823
1845
1840
1840
1827
1803
1778
1783
1790
1772
1748
1744
1753
1758
1781
1782
1799
1777
1799
2384
2877
2204
1683
1598
1408
1469
1631
1730
1762
1789
1801
1808
1817
1839
1853
1871
1882
1881
1914
1934
1943
1977
2011
2041
2065
2094
2076
2058
2037
2013
1948
1898
1866
1831
1807
1789
1769
1766
1763
1759
1747
1763
1769
1754
1742
1759
1776
1776
1775
1757
1775
1778
1776
1801
1840
1846
1843
1877
1882
1866
1823
1811
1794
1787
1777
1771
1765
1785
1795
1776
1761
1779
1840
1762
1959
2714
2727
1960
1657
1535
1430
1613
1739
1793
1799
1813
1835
1869
1871
1874
1886
1889
1919
1936
1951
1968
2011
2015
2030
2043
2093
2096
2103
2109
2065
2011
1954
1917
1872
1837
1817
1821
1813
1797
1777
1783
1803
1794
1797
1792
1787
1794
1811
1791
1777
1792
1819
1807
1792
1796
1805
1821
1860
1869
1879
1895
1915
1915
1859
1837
1808
1787
1803
1819
1795
1789
1789
1792
1802
1837
1836
1808
2323
2926
2305
1744
1633
1457
1535
1695
1779
1797
1835
1850
1856
1878
1887
1909
1911
1935
1941
1939
1975
1998
2018
2032
2055
2083
2112
2110
2117
2098
2064
2010
1942
1902
1866
1842
1822
1815
1805
1810
1811
1776
1763
1777
1802
1799
1782
1784
1793
1780
1778
1789
1797
1803
1794
1758
1763
1787
1809
1840
1854
1905
1887
1901
1862
1835
1838
1817
1792
1778
1780
1775
1757
1774
1786
1770
1793
1744
1846
2531
2781
2086
1691
1559
1424
1570
1711
1794
1807
1826
1840
1854
1851
1861
1872
1887
1898
1914
1933
1946
1978
2015
2016
2059
2096
2096
2110
2097
2069
2029
1975
1932
1898
1856
1809
1771
1761
1776
1739
1727
1725
1701
1699
1712
1699
1719
1697
1667
1680
1659
1653
1665
1662
1649
1664
1686
1680
1698
1744
1744
1780
1758
1694
1712
1696
1667
1683
1662
1669
1685
1679
1655
1684
1719
1683
1703
2214
2773
2215
1671
1535
1360
1423
1600
1697
1712
1734
1791
1781
1773
1808
1823
1799
1843
1865
1887
1928
1952
1971
2002
2023
2031
2091
2093
2079
2064
2029
1958
1920
1872
1808
1825
1799
1776
1781
1781
1762
1769
1760
1744
1761
1778
1771
1776
1787
1787
1797
1797
1772
1803
1802
1792
1840
1857
1855
1919
1922
1905
1869
1830
1809
1834
1814
1792
1775
1741
1718
1723
1756
1732
1791
1714
1808
2484
2783
2032
1603
1511
1357
1485
1657
1715
1744
1770
1787
1804
1819
1831
1847
1863
1878
1902
1904
1927
1983
2000
2015
2038
2072
2090
2128
2106
2039
2010
1967
1901
1897
1859
1822
1826
1820
1777
1787
1798
1789
1794
1803
1795
1827
1815
1803
1829
1833
1809
1844
1831
1812
1842
1883
1898
1938
1975
1936
1911
1887
1851
1858
1835
1825
1835
1824
1808
1855
1847
1819
1858
1910
1870
2281
3013
2530
1904
1777
1606
1649
1798
1902
1936
1952
1968
1970
1964
1983
2005
2019
2010
2043
2063
2081
2098
2101
2123
2151
2179
2177
2171
2181
2166
2128
2061
2007
1963
1947
1883
1863
1856
1855
1840
1815
1811
1823
1819
1803
1802
1820
1813
1809
1820
1814
1811
1819
1805
1791
1791
1808
1843
1868
1878
1895
1870
1856
1827
1807
1793
1776
1767
1753
1761
1758
1759
1761
1776
1785
1791
1743
2128
2874
2448
1783
1613
1428
1447
1616
1705
1737
1750
1776
1776
1794
1817
1840
1847
1849
1872
1903
1915
1924
1968
1994
2003
2023
2062
2071
2075
2068
2018
1965
1934
1875
1822
1790
1775
1774
1767
1776
1749
1741
1750
1777
1770
1757
1763
1757
1734
1749
1762
1773
1773
1773
1781
1755
1761
1792
1834
1829
1856
1854
1871
1873
1822
1783
1766
1769
1762
1766
1774
1767
1778
1774
1744
1777
1787
1758
2192
2881
2361
1765
1632
1441
1503
1664
1762
1782
1791
1801
1823
1820
1825
1859
1894
1904
1926
1948
1968
2009
2043
2079
2110
2128
2141
2142
2151
2147
2116
2043
1991
1945
1903
1860
1845
1838
1813
1805
1795
1794
1795
1794
1814
1819
1799
1799
1808
1776
1778
1802
1783
1789
1791
1744
1737
1744
1807
1834
1850
1861
1862
1855
1824
1769
1773
1770
1750
1725
1735
1730
1748
1745
1766
1755
1787
1734
2064
2806
2459
1765
1579
1430
1413
1577
1695
1743
1750
1759
1791
1807
1818
1837
1840
1839
1861
1900
1909
1913
1957
1990
2000
2001
2014
2041
2039
2011
1991
1958
1891
1861
1811
1771
1744
1762
1757
1744
1743
1736
1744
1747
1735
1725
1730
1749
1748
1743
1740
1759
1771
1762
1739
1751
1753
1799
1822
1847
1894
1884
1871
1804
1782
1791
1801
1757
1744
1731
1745
1766
1769
1754
1766
1814
1744
1974
2715
2662
1885
1603
1492
1413
1590
1717
1790
1814
1826
1819
1835
1853
1872
1879
1894
1898
1903
1931
1968
1984
1990
2014
2038
2070
2090
2074
2055
2058
2006
1953
1902
1857
1815
1808
1791
1797
1782
1767
1776
1776
1767
1751
1776
1795
1781
1794
1808
1808
1794
1786
1778
1787
1794
1825
1884
1873
1895
1917
1919
1883
1849
1841
1821
1812
1808
1791
1785
1782
1779
1782
1781
1835
1822
1790
2298
2938
2341
1741
1623
1445
1535
1681
1776
1811
1835
1845
1876
1876
1879
1904
1919
1927
1933
1947
1992
2014
2023
2062
2079
2102
2124
2125
2100
2083
2058
2006
1968
1902
1867
1854
1818
1814
1815
1808
1795
1803
1806
1813
1822
1822
1822
1824
1811
1815
1823
1838
1822
1809
1807
1813
1811
1809
1831
1886
1894
1921
1919
1920
1898
1851
1840
1821
1823
1826
1808
1824
1840
1853
1840
1835
1870
1847
1856
2437
2939
2287
1814
1689
1499
1601
1744
1827
1840
1860
1888
1918
1954
1974
1969
1945
1927
1936
1963
1994
2026
2065
2080
2089
2109
2096
2097
2112
2096
2063
2027
1963
1897
1865
1814
1799
1790
1788
1789
1773
1779
1776
1773
1785
1790
1791
1806
1808
1782
1794
1781
1776
1783
1789
1792
1792
1798
1823
1839
1853
1875
1891
1890
1872
1843
1827
1808
1798
1774
1778
1786
1799
1783
1787
1802
1804
1801
1730
2106
2854
2445
1833
1653
1456
1479
1616
1729
1776
1780
1789
1810
1823
1837
1840
1850
1857
1886
1890
1904
1919
1955
1969
1976
1994
2032
2043
2061
2019
2000
1941
1889
1840
1791
1779
1773
1738
1718
1729
1716
1719
1729
1722
1719
1758
1748
1738
1735
1730
1744
1757
1734
1735
1740
1755
1747
1739
1771
1792
1796
1840
1849
1860
1805
1749
1770
1753
1744
1740
1743
1727
1734
1717
1731
1737
1779
1723
1809
2486
2815
2085
1616
1516
1366
1511
1663
1735
1746
1779
1808
1793
1813
1831
1843
1851
1872
1887
1916
1935
1968
1947
1963
2018
2046
2055
2047
2047
2030
1981
1939
1903
1856
1801
1797
1776
1775
1750
1760
1762
1735
1755
1763
1744
1760
1776
1761
1766
1783
1776
1775
1754
1789
1795
1833
1867
1895
1911
1914
1866
1809
1809
1808
1792
1771
1787
1782
1781
1786
1814
1803
1799
1846
1781
2041
2814
2622
1869
1642
1519
1455
1635
1765
1825
1839
1847
1857
1858
1872
1885
1927
1920
1930
1957
1963
1996
2033
2045
2058
2075
2102
2117
2095
2095
2060
2009
1962
1919
1887
1853
1805
1805
1807
1815
1812
1797
1817
1809
1802
1814
1823
1825
1831
1826
1808
1809
1819
1825
1816
1823
1856
1874
1891
1919
1923
1925
1919
1879
1842
1815
1796
1796
1799
1809
1808
1807
1801
1808
1824
1818
1763
2165
2889
2464
1795
1648
1472
1509
1675
1783
1826
1825
1839
1859
1872
1883
1887
1927
1939
1947
1961
1963
1990
2018
2030
2047
2083
2092
2096
2096
2105
2077
1998
1953
1915
1877
1842
1807
1782
1776
1776
1774
1771
1776
1789
1785
1781
1791
1797
1794
1786
1792
1796
1787
1780
1779
1794
1807
1825
1867
1891
1882
1876
1887
1876
1851
1840
1807
1781
1776
1781
1777
1786
1799
1797
1782
1806
1847
1751
1959
2745
2685
1971
1709
1535
1458
1616
1754
1809
1814
1839
1837
1856
1857
1862
1898
1909
1925
1946
1961
1975
2004
2041
2063
2071
2095
2128
2126
2110
2083
2037
2006
1954
1875
1837
1813
1799
1792
1795
1792
1781
1783
1792
1788
1802
1803
1787
1791
1779
1771
1772
1787
1794
1795
1793
1799
1801
1811
1855
1872
1889
1898
1907
1901
1858
1834
1814
1793
1792
1776
1770
1778
1797
1799
1784
1804
1808
1726
2086
2849
2479
1857
1671
1471
1491
1645
1744
1777
1782
1807
1810
1826
1837
1849
1872
1883
1889
1903
1923
1953
1968
2003
2016
2028
2047
2074
2080
2089
2037
1983
1949
1882
1819
1786
1777
1759
1758
1776
1775
1770
1759
1749
1759
1753
1744
1762
1773
1767
1771
1743
1739
1735
1727
1742
1747
1758
1761
1795
1802
1814
1845
1841
1862
1823
1776
1750
1747
1749
1727
1702
1712
1719
1715
1733
1747
1775
1687
2017
2773
2469
1779
1591
1423
1378
1562
1663
1711
1746
1745
1745
1762
1806
1828
1824
1832
1855
1867
1898
1937
1969
2006
2014
2029
2038
2047
2064
2064
2000
1939
1909
1886
1837
1789
1755
1779
1762
1728
1726
1744
1750
1737
1717
1741
1746
1726
1741
1744
1757
1762
1771
1766
1774
1773
1808
1848
1844
1885
1879
1861
1813
1808
1791
1781
1766
1749
1747
1739
1744
1758
1779
1759
1779
1738
1889
2599
2759
2000
1614
1569
1425
1558
1703
1777
1776
1807
1835
1874
1879
1872
1900
1905
1899
1926
1941
1968
1997
2027
2059
2082
2109
2128
2114
2114
2104
2046
1970
1931
1893
1851
1839
1821
1799
1790
1791
1801
1808
1807
1790
1803
1811
1809
1803
1818
1813
1812
1818
1836
1838
1873
1895
1920
1941
1954
1951
1901
1875
1851
1811
1808
1809
1810
1822
1818
1808
1794
1803
1847
1814
1839
2425
2945
2255
1709
1619
1447
1552
1702
1777
1792
1802
1794
1808
1810
1819
1840
1861
1872
1879
1904
1934
1965
1985
2003
2033
2035
2059
2064
2064
2023
1974
1934
1891
1843
1825
1820
1801
1776
1781
1776
1773
1770
1776
1773
1773
1785
1804
1795
1797
1792
1807
1817
1807
1811
1807
1824
1854
1872
1882
1919
1938
1931
1877
1846
1819
1803
1809
1806
1803
1808
1791
1803
1805
1795
1842
1766
1925
2693
2762
2001
1682
1535
1466
1618
1734
1801
1808
1835
1863
1862
1874
1878
1904
1919
1916
1927
1961
2000
2010
2005
2037
2069
2098
2118
2112
2094
2071
2030
1982
1926
1901
1847
1813
1813
1794
1783
1776
1756
1741
1744
1745
1745
1763
1750
1746
1770
1749
1707
1717
1691
1673
1699
1697
1687
1703
1725
1762
1785
1799
1805
1808
1774
1730
1719
1703
1682
1709
1711
1695
1706
1707
1701
1712
1763
1729
1751
2311
2801
2202
1698
1567
1407
1491
1629
1751
1779
1794
1843
1840
1825
1858
1873
1884
1907
1923
1923
1965
1983
2019
2071
2067
2080
2111
2114
2127
2128
2047
1993
1968
1926
1872
1853
1858
1831
1812
1793
1792
1806
1806
1803
1833
1828
1818
1824
1815
1819
1837
1829
1825
1840
1825
1804
1814
1820
1841
1907
1904
1924
1927
1933
1907
1885
1853
1834
1823
1741
1701
1740
1733
1747
1781
1789
1806
1824
1787
2261
2931
2363
1787
1685
1491
1518
1692
1803
1854
1870
1868
1890
1920
1904
1914
1966
1953
1965
1989
1981
1986
2064
2075
2064
2126
2143
2126
2130
2096
2066
2032
1970
1907
1878
1837
1827
1818
1803
1791
1794
1766
1781
1797
1776
1784
1797
1771
1775
1805
1793
1798
1811
1777
1791
1819
1836
1851
1893
1911
1899
1883
1817
1789
1808
1801
1775
1785
1778
1755
1788
1826
1833
1838
1873
1856
2143
2902
2691
1946
1717
1615
1516
1686
1802
1858
1872
1891
1898
1914
1926
1939
1963
1983
1973
1986
2026
2038
2047
2064
2094
2128
2145
2128
2131
2113
2071
2022
1958
1911
1872
1851
1813
1806
1791
1774
1777
1776
1790
1806
1814
1849
1826
1823
1834
1847
1855
1846
1859
1867
1846
1857
1898
1904
1947
1936
1939
1904
1867
1850
1826
1815
1813
1808
1781
1771
1772
1797
1793
1814
1813
1776
2231
2913
2358
1718
1599
1426
1471
1631
1741
1783
1787
1806
1822
1830
1840
1851
1861
1869
1883
1893
1906
1950
1968
1971
2000
2029
2035
2062
2032
2001
1983
1947
1881
1840
1818
1757
1719
1717
1712
1715
1728
1722
1726
1739
1744
1745
1749
1758
1761
1776
1765
1774
1778
1779
1773
1776
1806
1850
1859
1891
1875
1872
1855
1827
1808
1785
1781
1759
1762
1758
1759
1763
1773
1766
1805
1787
1771
2284
2871
2302
1745
1615
1427
1527
1691
1762
1776
1806
1835
1840
1840
1855
1883
1878
1894
1900
1929
1965
2000
2017
2032
2075
2096
2098
2115
2121
2096
2038
1985
1938
1888
1858
1841
1839
1814
1807
1808
1812
1807
1790
1798
1808
1789
1793
1808
1805
1808
1808
1806
1808
1810
1808
1840
1861
1879
1889
1885
1899
1872
1831
1811
1795
1778
1773
1777
1781
1791
1791
1787
1799
1845
1767
1853
2559
2813
2099
1734
1582
1449
1593
1717
1777
1792
1831
1841
1841
1854
1863
1890
1901
1897
1915
1924
1935
1973
2014
2026
2041
2066
2064
2078
2075
2035
1999
1955
1883
1822
1787
1791
1775
1743
1745
1744
1739
1739
1730
1739
1741
1743
1757
1770
1754
1745
1747
1766
1749
1745
1773
1759
1723
1722
1748
1774
1776
1777
1801
1767
1729
1697
1680
1680
1687
1687
1680
1682
1666
1667
1705
1735
1655
1930
2700
2496
1781
1561
1419
1376
1553
1665
1741
1742
1759
1793
1791
1808
1831
1853
1851
1883
1889
1908
1945
1974
2006
2027
2047
2079
2096
2087
2075
2041
1994
1934
1890
1838
1817
1789
1791
1776
1764
1769
1759
1762
1775
1791
1779
1776
1782
1794
1808
1792
1799
1798
1808
1822
1849
1890
1923
1904
1909
1897
1859
1843
1819
1808
1795
1759
1765
1795
1792
1786
1802
1835
1852
1798
2114
2854
2559
1828
1652
1526
1495
1680
1787
1854
1881
1883
1901
1919
1930
1936
1938
1971
1990
1997
2019
2045
2089
2106
2125
2151
2167
2192
2182
2167
2151
2104
2027
1983
1945
1914
1901
1887
1899
1887
1883
1874
1872
1882
1881
1874
1888
1890
1902
1900
1890
1891
1916
1946
1975
1980
2015
1997
1968
1943
1919
1911
1888
1855
1857
1863
1865
1861
1871
1872
1885
1922
1861
1954
2637
2951
2201
1780
1679
1535
1697
1838
1914
1921
1917
1945
1973
1968
1969
1990
1999
2019
2035
2064
2063
2064
2077
2081
2091
2116
2115
2105
2103
2091
2039
1994
1972
1919
1894
1883
1873
1863
1872
1861
1845
1839
1846
1857
1853
1857
1856
1851
1840
1849
1840
1843
1837
1843
1872
1901
1894
1926
1933
1939
1889
1846
1836
1810
1808
1806
1802
1809
1812
1809
1799
1796
1843
1792
1840
2491
2861
2147
1734
1569
1427
1583
1695
1769
1781
1797
1806
1818
1826
1846
1861
1882
1901
1899
1905
1940
1968
1996
2020
2029
2069
2083
2087
2069
2032
1987
1945
1890
1841
1808
1789
1778
1767
1775
1766
1746
1745
1751
1747
1755
1753
1755
1765
1757
1754
1757
1751
1745
1744
1743
1745
1762
1817
1830
1840
1835
1845
1867
1810
1789
1770
1744
1753
1755
1759
1755
1751
1749
1753
1767
1803
1712
1947
2726
2602
1907
1681
1502
1491
1621
1712
1747
1769
1794
1828
1840
1835
1843
1866
1889
1907
1909
1936
1958
1973
1997
2000
2034
2075
2096
2085
2064
2026
1975
1927
1866
1833
1795
1776
1758
1744
1755
1740
1733
1738
1719
1715
1744
1757
1737
1751
1757
1737
1733
1751
1755
1751
1744
1745
1753
1779
1788
1839
1857
1846
1843
1809
1776
1759
1762
1742
1743
1738
1742
1727
1730
1743
1746
1792
1712
1985
2743
2523
1822
1591
1457
1392
1575
1680
1729
1740
1751
1771
1797
1810
1826
1839
1856
1852
1850
1884
1913
1935
1939
1955
1986
2010
2003
2005
2000
1970
1955
1894
1838
1805
1776
1744
1749
1735
1728
1729
1718
1701
1707
1743
1729
1727
1724
1751
1770
1765
1762
1767
1777
1765
1814
1872
1856
1872
1872
1871
1855
1822
1791
1783
1791
1777
1757
1770
1772
1770
1763
1760
1790
1786
1798
2314
2896
2253
1662
1583
1444
1503
1648
1753
1797
1823
1835
1858
1862
1874
1887
1901
1925
1940
1951
1973
2003
2027
2045
2075
2102
2122
2117
2114
2055
2006
1967
1929
1891
1855
1831
1799
1795
1791
1773
1772
1779
1786
1795
1791
1789
1807
1787
1775
1789
1789
1783
1796
1837
1872
1861
1904
1904
1888
1852
1837
1819
1793
1778
1776
1776
1776
1779
1791
1793
1796
1819
1841
1821
2282
2925
2339
1727
1632
1459
1527
1687
1795
1809
1815
1839
1862
1857
1872
1887
1900
1912
1936
1965
1977
2007
2020
2044
2089
2081
2061
2076
2079
2066
2027
1987
1927
1883
1837
1821
1808
1804
1795
1776
1776
1779
1762
1770
1776
1777
1783
1786
1791
1795
1795
1787
1799
1799
1801
1831
1872
1874
1905
1894
1905
1874
1831
1815
1799
1790
1787
1762
1776
1782
1784
1793
1797
1825
1791
1805
2403
2903
2234
1731
1602
1448
1582
1705
1791
1807
1817
1830
1842
1866
1871
1887
1886
1895
1923
1936
1955
1998
2005
2025
2053
2069
2110
2121
2111
2074
2023
1993
1943
1899
1872
1839
1823
1819
1810
1808
1795
1790
1791
1801
1808
1802
1808
1803
1807
1805
1801
1792
1786
1791
1803
1830
1857
1901
1924
1934
1961
1965
1960
1930
1901
1872
1859
1857
1855
1858
1871
1864
1853
1871
1879
1887
1796
2045
2839
2685
1996
1773
1565
1535
1698
1795
1842
1829
1833
1868
1884
1875
1866
1886
1919
1936
1951
1966
1974
2000
2034
2065
2073
2063
2090
2094
2081
2062
2001
1957
1911
1859
1854
1827
1818
1803
1783
1773
1760
1749
1750
1765
1744
1746
1758
1744
1727
1726
1713
1701
1712
1724
1715
1729
1740
1743
1776
1800
1799
1808
1814
1835
1787
1776
1758
1744
1749
1745
1732
1733
1721
1727
1733
1760
1787
1707
1871
2583
2657
1959
1631
1506
1408
1535
1670
1744
1758
1745
1756
1776
1810
1829
1827
1845
1835
1858
1871
1899
1936
1953
1959
2009
2031
2046
2046
2047
2000
1973
1919
1863
1841
1790
1769
1756
1750
1737
1730
1721
1732
1738
1721
1710
1727
1738
1739
1739
1744
1731
1745
1745
1747
1763
1783
1811
1840
1858
1869
1856
1839
1821
1808
1777
1766
1745
1750
1744
1745
1758
1753
1774
1781
1792
1744
2143
2832
2395
1751
1597
1463
1431
1605
1726
1777
1798
1798
1809
1841
1855
1873
1885
1895
1910
1925
1936
1974
2000
2002
2032
2058
2071
2084
2113
2086
2032
1991
1948
1909
1875
1821
1794
1791
1791
1786
1779
1792
1791
1775
1789
1794
1808
1808
1808
1797
1802
1803
1786
1823
1855
1885
1904
1933
1934
1917
1890
1858
1834
1813
1809
1808
1803
1804
1817
1817
1801
1797
1841
1814
1927
2582
2834
2094
1671
1603
1453
1602
1745
1829
1840
1869
1897
1872
1883
1904
1914
1936
1970
1983
1981
1999
2030
2063
2083
2105
2109
2095
2096
2099
2085
2047
2005
1955
1913
1885
1870
1840
1830
1822
1821
1800
1794
1813
1817
1813
1813
1815
1827
1839
1817
1815
1815
1815
1822
1851
1863
1859
1877
1876
1847
1808
1791
1770
1744
1737
1734
1712
1728
1701
1702
1713
1707
1728
1669
1942
2713
2498
1767
1535
1383
1334
1520
1652
1681
1712
1745
1744
1757
1792
1794
1801
1822
1838
1867
1894
1895
1941
1998
2019
2039
2071
2058
2047
2060
2019
1982
1957
1900
1861
1834
1785
1806
1808
1787
1783
1798
1797
1782
1787
1788
1819
1823
1791
1810
1831
1808
1818
1824
1811
1867
1904
1906
1935
1933
1901
1872
1871
1839
1824
1837
1809
1809
1837
1825
1838
1853
1853
1882
1804
2091
2869
2606
1929
1739
1535
1535
1712
1838
1856
1851
1885
1887
1907
1923
1919
1927
1951
1951
1968
2000
2003
2042
2084
2090
2103
2144
2123
2125
2122
2074
2037
1991
1926
1891
1874
1842
1834
1836
1818
1801
1823
1806
1809
1820
1808
1825
1827
1813
1817
1824
1817
1821
1819
1822
1835
1870
1882
1891
1932
1909
1917
1898
1869
1856
1843
1815
1837
1843
1832
1831
1839
1808
1825
1887
1793
1915
2653
2826
2135
1793
1578
1494
1646
1729
1797
1837
1827
1840
1858
1858
1875
1884
1889
1892
1905
1903
1934
1993
2064
2094
2125
2160
2185
2182
2157
2114
2096
2046
1988
1934
1901
1887
1869
1851
1856
1846
1845
1840
1813
1806
1817
1803
1802
1795
1806
1813
1795
1804
1803
1798
1791
1801
1803
1833
1858
1883
1875
1873
1844
1808
1791
1769
1756
1739
1723
1730
1742
1744
1731
1745
1798
1702
1909
2666
2634
1903
1584
1487
1399
1535
1664
1721
1744
1770
1789
1808
1840
1839
1825
1814
1829
1856
1904
1916
1933
1956
1982
1997
2000
2010
2029
2047
1999
1933
1886
1869
1806
1759
1746
1728
1740
1723
1711
1712
1712
1699
1706
1693
1713
1718
1715
1743
1766
1756
1733
1748
1779
1807
1806
1814
1826
1805
1780
1778
1776
1750
1733
1723
1708
1714
1726
1709
1716
1734
1799
1759
1894
2559
2788
2032
1622
1569
1427
1535
1670
1765
1821
1809
1831
1849
1858
1874
1872
1887
1893
1904
1939
1955
1974
2005
2061
2099
2103
2112
2116
2109
2074
2045
1995
1933
1886
1858
1840
1814
1808
1806
1808
1819
1817
1796
1787
1787
1782
1798
1795
1797
1799
1805
1811
1827
1849
1863
1887
1926
1914
1895
1871
1849
1846
1823
1813
1814
1808
1807
1787
1797
1821
1812
1853
1824
1877
2487
2898
2185
1717
1611
1462
1606
1747
1837
1855
1846
1871
1879
1884
1903
1923
1930
1934
1951
1968
1977
1989
2029
2067
2086
2094
2103
2122
2119
2091
2045
1998
1943
1898
1863
1836
1827
1783
1776
1782
1803
1805
1787
1795
1805
1799
1780
1779
1776
1778
1790
1791
1786
1803
1807
1805
1808
1837
1862
1898
1898
1889
1875
1855
1826
1792
1775
1789
1802
1796
1793
1786
1791
1801
1806
1803
1761
2158
2894
2470
1825
1662
1474
1515
1681
1760
1772
1790
1822
1831
1850
1862
1873
1901
1906
1909
1923
1957
1979
2000
2011
2032
2071
2090
2093
2098
2095
2046
1982
1934
1888
1849
1799
1779
1776
1782
1774
1775
1784
1789
1775
1771
1781
1801
1788
1770
1773
1776
1786
1792
1792
1791
1798
1794
1850
1879
1887
1888
1902
1893
1854
1823
1803
1804
1807
1812
1810
1791
1789
1808
1798
1807
1827
1745
1983
2767
2659
1982
1728
1555
1491
1648
1757
1791
1805
1837
1856
1871
1878
1886
1888
1906
1941
1958
1971
1986
2017
2047
2047
2069
2108
2109
2094
2094
2069
2014
1968
1917
1850
1809
1781
1779
1779
1763
1761
1761
1767
1776
1783
1771
1749
1753
1744
1755
1765
1767
1776
1777
1766
1751
1743
1764
1795
1822
1840
1865
1858
1855
1871
1845
1813
1787
1759
1765
1766
1778
1744
1739
1733
1742
1761
1789
1729
2083
2807
2461
1805
1626
1456
1430
1607
1711
1773
1776
1785
1808
1823
1840
1863
1881
1920
1920
1910
1947
1986
1994
2035
2064
2096
2092
2113
2128
2098
2066
2033
1964
1899
1867
1852
1821
1814
1809
1797
1791
1793
1792
1773
1788
1797
1792
1806
1798
1789
1793
1808
1795
1815
1808
1799
1796
1807
1829
1843
1869
1925
1915
1904
1878
1850
1813
1777
1784
1797
1781
1766
1761
1776
1805
1792
1826
1767
1904
2587
2804
2074
1651
1584
1445
1591
1721
1808
1818
1823
1827
1853
1885
1878
1878
1885
1903
1904
1918
1946
1970
2015
2043
2067
2098
2110
2125
2125
2095
2017
1967
1928
1908
1872
1823
1807
1809
1808
1781
1781
1782
1780
1771
1776
1777
1776
1781
1778
1776
1781
1799
1799
1808
1808
1792
1776
1793
1812
1831
1864
1915
1903
1897
1890
1851
1840
1821
1787
1782
1772
1783
1779
1787
1789
1774
1815
1808
1806
2317
2911
2273
1705
1599
1421
1497
1664
1771
1803
1829
1840
1835
1842
1857
1877
1889
1904
1923
1923
1965
2002
2017
2057
2080
2080
2096
2101
2095
2071
2058
2014
1950
1903
1870
1840
1798
1796
1801
1793
1781
1770
1775
1785
1791
1808
1801
1786
1780
1781
1793
1798
1789
1789
1776
1787
1809
1869
1889
1903
1904
1901
1885
1853
1851
1824
1808
1806
1802
1815
1833
1808
1776
1776
1797
1835
1746
2031
2811
2592
1934
1719
1520
1472
1642
1770
1802
1808
1839
1859
1872
1891
1905
1923
1919
1936
1951
1968
1998
2011
2038
2096
2116
2144
2145
2112
2114
2100
2041
1988
1923
1890
1850
1817
1794
1774
1782
1790
1776
1775
1793
1790
1789
1777
1794
1796
1776
1777
1787
1808
1775
1776
1774
1763
1781
1787
1850
1872
1902
1872
1904
1874
1840
1808
1774
1769
1767
1767
1770
1764
1761
1764
1775
1798
1785
1747
2193
2867
2354
1735
1613
1431
1465
1625
1741
1788
1805
1815
1808
1807
1826
1861
1869
1872
1899
1920
1951
1977
1993
2007
2017
2037
2079
2093
2064
2038
2023
1995
1940
1871
1821
1805
1787
1776
1728
1724
1737
1723
1726
1741
1727
1722
1747
1747
1731
1744
1744
1737
1741
1762
1734
1739
1734
1767
1815
1839
1872
1865
1873
1842
1815
1808
1777
1765
1773
1763
1763
1757
1769
1780
1779
1834
1799
1823
2406
2919
2223
1675
1611
1424
1518
1680
1767
1803
1808
1799
1803
1815
1861
1872
1875
1899
1919
1910
1948
1974
2017
2026
2037
2058
2079
2109
2112
2092
2026
2019
1978
1921
1877
1861
1843
1797
1767
1776
1767
1776
1806
1795
1781
1797
1794
1808
1786
1779
1763
1790
1790
1774
1783
1786
1806
1835
1867
1872
1905
1872
1883
1858
1840
1802
1744
1730
1728
1779
1770
1762
1782
1779
1789
1835
1815
1807
2336
2934
2315
1746
1635
1471
1554
1706
1776
1814
1842
1842
1856
1873
1879
1904
1919
1941
1951
1966
1986
2011
2032
2059
2077
2095
2119
2119
2140
2118
2070
2017
1968
1931
1887
1849
1840
1824
1819
1822
1802
1795
1806
1802
1806
1797
1809
1818
1811
1802
1814
1810
1810
1799
1815
1821
1814
1791
1794
1840
1863
1872
1872
1903
1904
1926
1888
1867
1843
1829
1808
1808
1806
1808
1790
1797
1805
1814
1853
1821
1835
2431
2928
2262
1763
1631
1438
1535
1701
1785
1805
1826
1856
1870
1872
1887
1901
1915
1934
1946
1955
1981
2003
2005
2034
2064
2087
2096
2110
2113
2107
2063
2011
1946
1901
1882
1847
1825
1801
1780
1794
1801
1803
1786
1775
1811
1802
1781
1794
1798
1787
1806
1783
1790
1803
1814
1827
1838
1823
1814
1824
1811
1823
1841
1889
1901
1904
1914
1938
1893
1856
1844
1819
1811
1808
1802
1792
1808
1809
1808
1810
1844
1776
1908
2623
2787
2075
1712
1562
1425
1597
1723
1792
1829
1813
1826
1853
1870
1875
1872
1871
1885
1909
1929
1946
1968
2005
2008
2023
2063
2075
2085
2086
2064
2017
1959
1907
1891
1851
1823
1797
1778
1761
1730
1751
1779
1766
1766
1774
1777
1741
1739
1745
1749
1765
1746
1744
1751
1751
1758
1776
1797
1815
1833
1869
1878
1869
1807
1776
1767
1776
1743
1741
1741
1750
1739
1766
1782
1765
1783
1737
1850
2530
2793
2039
1617
1581
1407
1519
1665
1760
1789
1809
1825
1835
1833
1858
1860
1873
1879
1891
1903
1941
1971
1991
2019
2032
2046
2064
2075
2063
2017
1990
1954
1904
1863
1828
1807
1789
1766
1748
1750
1744
1748
1759
1766
1769
1764
1759
1769
1761
1776
1774
1767
1771
1783
1772
1793
1824
1856
1875
1909
1926
1903
1857
1835
1807
1806
1799
1799
1800
1794
1781
1813
1831
1808
1840
1769
1925
2673
2800
2032
1680
1590
1456
1607
1748
1818
1839
1866
1872
1873
1901
1890
1904
1917
1938
1942
1966
1995
1988
2015
2064
2085
2096
2112
2122
2102
2082
2032
1989
1936
1877
1827
1809
1797
1771
1757
1761
1775
1763
1755
1757
1776
1790
1789
1783
1786
1776
1782
1780
1794
1813
1791
1750
1750
1771
1785
1814
1842
1855
1851
1846
1808
1803
1803
1750
1741
1727
1693
1696
1678
1655
1680
1677
1701
1661
1808
2528
2693
1959
1584
1459
1339
1488
1637
1723
1713
1744
1774
1767
1787
1808
1796
1824
1854
1869
1877
1917
1925
1955
1996
2013
2054
2074
2064
2072
2060
2006
1968
1931
1881
1854
1820
1773
1795
1808
1787
1805
1790
1774
1812
1810
1789
1798
1822
1802
1824
1842
1826
1826
1838
1823
1843
1845
1842
1863
1911
1898
1947
1955
1936
1918
1906
1872
1863
1853
1834
1831
1833
1821
1831
1838
1840
1874
1817
1895
2598
2880
2163
1776
1629
1468
1626
1744
1795
1835
1847
1859
1885
1915
1908
1917
1936
1935
1943
1984
1988
2018
2057
2064
2096
2135
2127
2158
2160
2128
2103
2071
1971
1935
1919
1883
1872
1863
1835
1867
1875
1846
1865
1851
1841
1853
1856
1840
1845
1846
1837
1836
1837
1834
1861
1857
1835
1843
1853
1829
1899
1923
1919
1926
1919
1912
1915
1866
1819
1814
1810
1795
1803
1774
1767
1779
1790
1776
1811
1743
2042
2832
2535
1830
1623
1456
1424
1621
1729
1798
1854
1883
1886
1893
1911
1927
1936
1945
1957
1986
2005
2031
2068
2077
2083
2109
2128
2142
2129
2112
2080
2013
1984
1951
1895
1857
1835
1828
1797
1781
1778
1807
1791
1767
1774
1780
1791
1765
1767
1792
1763
1762
1776
1761
1763
1776
1777
1764
1794
1813
1839
1840
1878
1887
1887
1831
1808
1789
1759
1746
1743
1725
1741
1722
1729
1741
1743
1783
1704
1838
2529
2781
2029
1595
1520
1375
1498
1631
1744
1776
1785
1802
1803
1818
1824
1836
1854
1882
1904
1919
1946
1968
1996
2003
2046
2071
2064
2070
2064
2037
1997
1963
1906
1873
1842
1815
1809
1788
1771
1768
1757
1745
1751
1751
1745
1747
1776
1769
1784
1773
1780
1782
1776
1796
1810
1803
1840
1861
1897
1907
1904
1872
1840
1814
1791
1765
1773
1775
1745
1742
1744
1759
1759
1779
1806
1739
2089
2843
2501
1797
1609
1457
1424
1617
1741
1810
1826
1825
1827
1843
1860
1874
1885
1898
1907
1915
1931
1970
2003
2023
2032
2054
2070
2077
2069
2067
2035
1999
1950
1899
1872
1853
1821
1805
1806
1818
1789
1775
1767
1786
1776
1786
1793
1798
1798
1808
1809
1808
1808
1810
1819
1810
1822
1859
1895
1897
1913
1919
1951
1921
1898
1877
1843
1826
1840
1830
1803
1801
1812
1823
1831
1840
1866
1806
2183
2929
2514
1867
1706
1519
1534
1683
1794
1815
1823
1853
1871
1878
1879
1889
1906
1933
1949
1954
1974
1985
2011
2031
2059
2067
2082
2123
2125
2119
2084
2032
1985
1956
1917
1866
1839
1833
1826
1793
1799
1810
1808
1787
1783
1807
1820
1798
1807
1808
1821
1804
1808
1798
1795
1815
1822
1825
1852
1885
1879
1926
1927
1918
1872
1845
1840
1822
1793
1795
1809
1797
1791
1791
1794
1789
1831
1747
1869
2559
2791
2080
1702
1579
1408
1557
1684
1759
1770
1798
1812
1819
1835
1833
1835
1866
1875
1899
1904
1924
1946
1985
2005
2016
2055
2075
2079
2071
2037
2000
1969
1915
1856
1827
1782
1757
1739
1729
1729
1717
1742
1755
1750
1739
1743
1745
1738
1751
1741
1727
1730
1755
1744
1744
1777
1808
1814
1846
1862
1862
1825
1783
1775
1763
1767
1742
1717
1725
1738
1757
1745
1747
1787
1793
1729
2130
2842
2382
1726
1580
1433
1435
1605
1711
1785
1795
1808
1808
1799
1832
1855
1853
1886
1907
1950
1947
1959
1983
2010
2029
2026
2047
2064
2083
2057
2009
1963
1924
1906
1865
1795
1791
1776
1751
1747
1749
1766
1772
1771
1779
1794
1794
1786
1783
1779
1798
1793
1809
1807
1808
1842
1879
1879
1915
1933
1923
1904
1870
1851
1827
1824
1810
1797
1803
1806
1803
1800
1803
1808
1826
1765
2066
2830
2559
1851
1652
1501
1464
1647
1772
1821
1835
1850
1867
1885
1889
1904
1924
1934
1964
1974
1995
2026
2045
2087
2112
2103
2116
2142
2143
2129
2098
2047
2004
1964
1915
1887
1860
1842
1823
1818
1822
1815
1808
1808
1821
1831
1828
1817
1828
1817
1811
1818
1817
1821
1827
1821
1849
1874
1881
1915
1917
1921
1890
1859
1839
1798
1792
1796
1792
1776
1777
1776
1792
1794
1839
1842
1798
2288
2921
2343
1754
1611
1431
1518
1681
1777
1801
1812
1840
1846
1859
1877
1885
1905
1910
1922
1936
1962
1991
2017
2032
2065
2074
2104
2112
2086
2078
2039
1991
1955
1911
1871
1839
1815
1804
1787
1783
1785
1793
1792
1767
1774
1789
1789
1778
1774
1787
1782
1777
1773
1782
1790
1798
1813
1842
1854
1874
1904
1903
1885
1833
1806
1806
1795
1785
1774
1773
1781
1776
1774
1776
1792
1822
1715
1989
2800
2622
1927
1687
1493
1481
1641
1750
1795
1813
1832
1821
1829
1843
1866
1873
1886
1904
1913
1930
1962
1984
2014
2032
2063
2071
2093
2096
2080
2039
2004
1975
1918
1863
1828
1806
1802
1776
1779
1763
1762
1764
1775
1779
1765
1786
1777
1765
1765
1753
1762
1749
1746
1779
1767
1765
1766
1759
1776
1823
1813
1840
1840
1857
1840
1803
1791
1777
1775
1757
1742
1743
1744
1734
1744
1743
1794
1783
1754
2271
2863
2255
1703
1590
1381
1467
1642
1741
1744
1776
1808
1829
1843
1841
1838
1875
1891
1893
1920
1936
1934
1945
2015
2025
2034
2067
2083
2067
2064
2031
1981
1931
1872
1815
1795
1785
1760
1727
1699
1673
1621
1642
1637
1633
1665
1671
1685
1699
1706
1699
1695
1702
1721
1734
1719
1763
1798
1815
1861
1862
1844
1813
1789
1769
1758
1750
1733
1744
1767
1762
1747
1777
1747
1770
1782
1776
2241
2896
2345
1714
1589
1443
1488
1674
1761
1790
1809
1851
1875
1872
1902
1919
1919
1925
1954
1974
1998
2026
2064
2081
2099
2108
2132
2160
2154
2131
2102
2047
1997
1949
1920
1904
1877
1835
1821
1836
1853
1848
1815
1825
1824
1840
1836
1824
1842
1834
1824
1821
1828
1842
1856
1897
1910
1920
1936
1933
1902
1872
1851
1827
1806
1808
1808
1826
1823
1809
1808
1817
1826
1846
1776
2027
2816
2663
1920
1670
1535
1461
1638
1767
1815
1810
1826
1843
1856
1878
1889
1899
1922
1929
1956
1967
1970
2000
2028
2047
2075
2109
2098
2096
2091
2064
1990
1941
1903
1867
1827
1822
1823
1786
1759
1761
1762
1760
1757
1776
1781
1781
1778
1785
1797
1807
1776
1758
1766
1787
1806
1834
1859
1867
1894
1905
1898
1866
1840
1808
1787
1776
1802
1797
1780
1779
1808
1806
1801
1830
1789
1829
2451
2894
2199
1743
1605
1433
1558
1702
1775
1786
1815
1836
1847
1866
1878
1883
1895
1906
1913
1937
1963
1990
2013
2034
2069
2086
2103
2114
2110
2084
2045
1995
1938
1909
1879
1842
1816
1797
1794
1803
1808
1806
1790
1776
1786
1801
1803
1808
1808
1818
1811
1820
1821
1819
1837
1851
1873
1887
1910
1924
1930
1903
1868
1840
1812
1791
1807
1805
1801
1795
1787
1785
1789
1830
1870
1773
2075
2832
2534
1867
1662
1483
1493
1655
1776
1832
1862
1855
1874
1877
1895
1922
1929
1964
1983
1986
1983
2018
2042
2070
2091
2103
2109
2132
2143
2121
2080
2045
1989
1939
1904
1875
1825
1819
1819
1807
1790
1776
1780
1788
1789
1788
1776
1776
1775
1767
1755
1779
1788
1780
1798
1835
1840
1877
1894
1891
1855
1827
1808
1774
1754
1755
1742
1738
1734
1744
1744
1739
1742
1808
1721
1971
2733
2646
1871
1591
1488
1409
1584
1687
1757
1781
1785
1786
1810
1839
1837
1843
1871
1866
1868
1911
1937
1948
1973
1999
2003
2023
2043
2047
2033
1989
1949
1914
1862
1835
1799
1777
1767
1754
1731
1744
1762
1754
1742
1758
1775
1767
1776
1767
1780
1780
1779
1797
1840
1855
1853
1903
1922
1904
1856
1833
1810
1794
1775
1764
1771
1781
1764
1773
1778
1777
1790
1809
1795
2202
2899
2423
1754
1606
1446
1467
1643
1757
1818
1821
1833
1851
1872
1895
1889
1890
1915
1933
1950
1985
1995
2014
2066
2078
2093
2102
2112
2114
2075
2018
1987
1936
1899
1859
1837
1815
1793
1778
1767
1791
1789
1790
1783
1776
1792
1799
1794
1802
1807
1807
1806
1805
1823
1859
1875
1887
1914
1918
1894
1850
1842
1842
1808
1785
1786
1792
1792
1797
1822
1808
1795
1835
1777
1862
2539
2845
2128
1691
1568
1441
1605
1743
1807
1826
1842
1861
1872
1879
1902
1918
1904
1899
1919
1945
1973
1998
2041
2062
2078
2106
2113
2097
2098
2083
2020
1975
1926
1881
1847
1826
1819
1803
1805
1801
1785
1792
1792
1767
1760
1776
1792
1795
1795
1805
1807
1803
1795
1802
1817
1855
1859
1871
1890
1904
1875
1825
1808
1805
1766
1744
1722
1685
1701
1686
1689
1712
1699
1728
1660
1859
2616
2619
1901
1589
1427
1337
1471
1559
1581
1535
1530
1518
1535
1535
1520
1556
1571
1555
1584
1598
1581
1655
1735
1812
1904
1953
1979
2047
2064
2027
2006
1974
1925
1898
1877
1878
1883
1887
1873
1879
1885
1877
1885
1893
1892
1904
1904
1874
1888
1899
1870
1905
1926
1922
1918
1926
1936
1976
1993
1974
2006
1979
1943
1942
1925
1885
1885
1899
1885
1879
1873
1856
1862
1897
1871
1862
2367
2957
2383
1823
1683
1507
1575
1721
1825
1868
1843
1879
1905
1897
1936
1948
1933
1965
1973
1966
1995
2015
2032
2071
2096
2105
2132
2127
2128
2131
2075
2000
1968
1925
1851
1817
1805
1794
1808
1792
1792
1795
1786
1762
1785
1778
1751
1774
1766
1759
1793
1791
1776
1791
1808
1830
1870
1867
1872
1891
1906
1830
1813
1803
1781
1773
1775
1757
1778
1779
1751
1767
1766
1798
1790
1904
2541
2830
2082
1648
1576
1427
1562
1690
1778
1787
1830
1831
1829
1881
1875
1865
1914
1937
1932
1968
1974
1990
2029
2033
2047
2094
2121
2160
2162
2154
2121
2067
2022
1988
1942
1927
1918
1899
1899
1900
1901
1873
1879
1875
1885
1885
1877
1861
1879
1883
1878
1885
1904
1926
1923
1939
1975
1965
1961
1915
1873
1849
1836
1836
1823
1809
1819
1822
1823
1824
1834
1872
1809
1903
2549
2867
2128
1682
1584
1447
1590
1721
1791
1815
1836
1838
1859
1868
1874
1905
1910
1904
1923
1953
1974
2000
2015
2039
2067
2073
2084
2093
2074
2039
2007
1963
1904
1855
1821
1798
1776
1763
1751
1761
1759
1746
1745
1757
1771
1774
1763
1751
1746
1755
1765
1762
1767
1771
1782
1817
1831
1856
1887
1883
1856
1825
1803
1791
1794
1782
1773
1776
1781
1765
1768
1778
1802
1828
1739
1991
2800
2641
1892
1663
1488
1458
1623
1751
1810
1826
1825
1840
1840
1857
1872
1910
1913
1902
1914
1936
1956
1995
2026
2064
2070
2090
2105
2096
2073
2045
2003
1951
1886
1840
1813
1798
1775
1763
1759
1771
1783
1767
1761
1779
1797
1803
1803
1778
1776
1776
1779
1795
1802
1795
1840
1874
1881
1903
1909
1919
1872
1840
1825
1803
1779
1778
1782
1793
1796
1795
1806
1793
1839
1812
1775
2304
2872
2267
1761
1647
1471
1535
1694
1792
1814
1821
1856
1866
1875
1898
1911
1926
1919
1918
1940
1988
2017
2045
2090
2125
2138
2128
2129
2130
2112
2079
2033
1987
1941
1904
1863
1850
1837
1837
1820
1824
1814
1814
1823
1809
1795
1813
1809
1837
1829
1814
1793
1796
1790
1810
1851
1874
1892
1907
1904
1856
1854
1850
1830
1819
1842
1847
1840
1859
1872
1866
1871
1953
1887
1967
2651
2896
2162
1774
1588
1365
1517
1681
1771
1776
1776
1797
1815
1830
1849
1850
1863
1881
1873
1883
1927
1967
1971
1990
2001
2023
2047
2043
2032
2032
1999
1919
1875
1842
1810
1773
1771
1747
1769
1771
1737
1731
1743
1749
1744
1738
1755
1772
1733
1765
1776
1758
1774
1814
1872
1872
1878
1879
1856
1840
1808
1791
1777
1786
1776
1757
1747
1743
1773
1790
1803
1834
1806
2191
2899
2483
1791
1626
1463
1466
1661
1770
1812
1836
1852
1844
1865
1905
1911
1921
1921
1936
1950
1985
2010
2022
2058
2069
2082
2093
2102
2102
2074
2032
1985
1934
1873
1846
1836
1782
1775
1779
1765
1763
1767
1785
1761
1771
1763
1772
1767
1758
1746
1754
1769
1794
1835
1867
1895
1886
1866
1846
1822
1805
1791
1787
1791
1787
1781
1776
1774
1779
1790
1826
1827
1807
2289
2921
2348
1744
1611
1424
1520
1687
1779
1799
1827
1842
1851
1871
1891
1904
1917
1955
1966
1959
1987
2014
2038
2067
2101
2139
2125
2107
2121
2110
2082
2031
1974
1936
1883
1857
1831
1810
1818
1808
1810
1799
1786
1793
1798
1808
1783
1770
1774
1767
1755
1755
1767
1805
1822
1848
1847
1846
1827
1789
1777
1765
1754
1746
1725
1713
1738
1742
1754
1747
1770
1781
1698
2017
2796
2456
1823
1638
1440
1445
1614
1723
1744
1746
1775
1795
1783
1808
1812
1823
1855
1871
1887
1910
1913
1938
1970
2000
2025
2035
2032
2042
2033
1992
1947
1900
1858
1837
1806
1776
1748
1747
1739
1728
1743
1749
1764
1776
1789
1785
1777
1778
1755
1755
1755
1773
1826
1855
1842
1856
1871
1872
1852
1813
1779
1769
1757
1759
1776
1777
1771
1776
1795
1807
1827
1744
1931
2721
2682
1981
1696
1529
1455
1590
1712
1789
1797
1808
1830
1846
1841
1855
1872
1873
1891
1904
1929
1967
1983
2001
2042
2078
2073
2078
2088
2063
2031
2001
1945
1894
1871
1835
1795
1782
1772
1779
1787
1745
1734
1743
1771
1780
1767
1752
1767
1789
1764
1769
1774
1793
1840
1835
1855
1870
1869
1858
1811
1791
1772
1759
1749
1742
1749
1743
1744
1744
1744
1794
1778
1794
2359
2883
2216
1680
1584
1417
1500
1653
1748
1788
1804
1820
1816
1855
1873
1886
1889
1911
1914
1933
1983
2000
2002
2023
2067
2090
2103
2128
2126
2079
2035
1994
1936
1894
1861
1840
1839
1827
1830
1818
1809
1807
1803
1805
1792
1808
1808
1813
1818
1821
1828
1869
1882
1918
1938
1937
1913
1869
1840
1839
1808
1797
1813
1794
1792
1789
1797
1817
1822
1853
1805
1841
2459
2912
2199
1702
1601
1441
1565
1730
1829
1849
1863
1873
1879
1878
1890
1913
1931
1938
1961
1981
2015
2032
2059
2092
2107
2122
2145
2128
2118
2110
2071
2018
1967
1936
1888
1871
1856
1835
1817
1814
1841
1831
1810
1815
1837
1844
1840
1834
1836
1831
1819
1850
1913
1917
1918
1931
1920
1905
1881
1859
1848
1826
1791
1775
1791
1808
1792
1798
1810
1854
1855
1779
2211
2967
2477
1805
1647
1463
1527
1689
1787
1821
1825
1840
1857
1872
1887
1901
1916
1916
1915
1943
1982
1997
2019
2042
2082
2105
2096
2096
2096
2074
2005
1940
1912
1889
1842
1805
1779
1783
1782
1785
1776
1762
1776
1787
1785
1783
1773
1773
1779
1776
1797
1830
1868
1883
1889
1885
1863
1830
1832
1826
1802
1789
1776
1777
1785
1767
1745
1743
1759
1818
1741
1905
2672
2832
2026
1648
1482
1398
1586
1744
1790
1791
1805
1827
1863
1870
1868
1872
1895
1908
1919
1936
1968
1995
2018
2057
2064
2064
2079
2087
2066
2032
1986
1933
1872
1842
1806
1776
1764
1751
1746
1755
1749
1751
1771
1775
1765
1760
1771
1761
1761
1755
1776
1813
1851
1865
1889
1881
1872
1834
1824
1802
1761
1746
1744
1759
1765
1755
1749
1755
1748
1798
1730
1936
2701
2788
1997
1649
1499
1433
1593
1729
1786
1785
1808
1831
1851
1862
1855
1863
1878
1899
1932
1947
1936
1938
1968
1990
2015
2058
2064
2054
2040
2029
2001
1930
1879
1827
1818
1783
1777
1771
1761
1761
1760
1775
1789
1796
1796
1776
1781
1783
1794
1831
1851
1856
1870
1871
1866
1839
1808
1811
1810
1785
1776
1767
1777
1766
1763
1762
1772
1811
1757
1998
2781
2706
1934
1649
1488
1453
1632
1737
1775
1779
1805
1835
1837
1840
1858
1868
1875
1904
1935
1947
1966
1987
2002
2037
2063
2081
2102
2095
2065
2026
1978
1945
1894
1840
1826
1813
1802
1785
1776
1790
1791
1791
1766
1766
1760
1767
1775
1774
1781
1813
1840
1857
1873
1867
1872
1840
1818
1808
1781
1777
1779
1767
1780
1780
1778
1761
1779
1839
1757
1975
2737
2621
1953
1719
1523
1471
1646
1760
1808
1808
1812
1840
1861
1878
1871
1887
1937
1953
1936
1963
1994
2016
2038
2062
2064
2089
2108
2091
2070
2044
1995
1951
1914
1858
1823
1806
1792
1807
1799
1776
1776
1774
1773
1786
1802
1779
1791
1763
1745
1759
1779
1819
1829
1808
1849
1850
1875
1845
1805
1773
1749
1755
1743
1735
1739
1734
1744
1745
1757
1792
1726
1889
2642
2663
1941
1653
1517
1403
1563
1701
1775
1777
1805
1820
1825
1824
1826
1843
1865
1889
1893
1926
1946
1952
1991
2017
2027
2064
2079
2068
2064
2030
1984
1936
1882
1853
1829
1805
1776
1776
1771
1761
1746
1760
1774
1776
1759
1754
1747
1761
1766
1767
1773
1808
1843
1861
1889
1872
1879
1840
1814
1805
1765
1755
1745
1719
1744
1754
1757
1770
1755
1818
1727
1907
2640
2704
1929
1597
1514
1413
1574
1690
1783
1803
1809
1823
1835
1839
1857
1872
1886
1901
1925
1950
1974
1990
2005
2030
2064
2073
2081
2094
2074
2055
2013
1967
1914
1884
1855
1840
1817
1803
1801
1808
1803
1792
1798
1799
1790
1806
1801
1810
1796
1791
1822
1865
1899
1905
1903
1902
1865
1822
1815
1808
1776
1755
1750
1759
1763
1750
1746
1715
1757
1728
1753
2331
2824
2146
1616
1494
1314
1450
1611
1687
1698
1696
1707
1732
1726
1731
1763
1761
1759
1807
1805
1819
1859
1893
1915
1950
1955
1963
1991
1975
1956
1935
1883
1831
1817
1787
1767
1765
1751
1739
1744
1743
1767
1767
1742
1727
1764
1769
1783
1805
1790
1802
1829
1853
1872
1913
1907
1911
1904
1856
1839
1850
1825
1810
1819
1808
1811
1846
1841
1826
1872
1854
1839
2391
2981
2338
1801
1674
1502
1633
1792
1840
1870
1883
1909
1943
1935
1961
1984
1981
1995
2032
2039
2047
2088
2103
2128
2176
2174
2190
2215
2194
2185
2127
2059
2022
2002
1947
1894
1904
1879
1873
1899
1857
1862
1887
1873
1870
1880
1872
1861
1877
1862
1870
1877
1855
1876
1933
1922
1946
1954
1947
1901
1890
1880
1872
1861
1821
1818
1835
1815
1814
1839
1829
1872
1798
1878
2559
2820
2122
1751
1600
1457
1619
1776
1811
1823
1847
1847
1856
1884
1887
1917
1954
1937
1954
1974
1979
2007
2075
2077
2082
2109
2111
2117
2114
2069
2015
1984
1936
1902
1872
1830
1798
1810
1790
1776
1794
1818
1824
1852
1866
1881
1893
1913
1903
1887
1883
1887
1885
1925
1945
1949
1967
1953
1976
1925
1891
1872
1851
1839
1830
1806
1813
1799
1783
1796
1808
1869
1791
1899
2607
2750
2003
1639
1535
1414
1535
1683
1760
1783
1807
1807
1808
1823
1843
1862
1870
1868
1885
1900
1920
1950
1981
2000
2000
2015
2023
2014
2001
1973
1922
1885
1873
1822
1758
1725
1707
1725
1711
1712
1689
1663
1690
1711
1701
1714
1697
1716
1734
1716
1705
1726
1766
1807
1810
1859
1851
1837
1793
1761
1770
1738
1743
1750
1741
1728
1726
1744
1728
1753
1811
1744
2003
2757
2559
1794
1562
1456
1435
1600
1713
1779
1805
1815
1807
1820
1841
1866
1881
1890
1904
1905
1946
1969
1979
2006
2037
2047
2064
2076
2070
2083
2032
1982
1963
1902
1847
1823
1806
1815
1797
1802
1787
1803
1793
1792
1776
1771
1790
1808
1783
1783
1812
1808
1843
1865
1902
1921
1904
1897
1866
1823
1823
1789
1773
1759
1750
1749
1763
1779
1787
1783
1825
1771
1903
2641
2781
2006
1629
1513
1434
1616
1742
1805
1808
1819
1838
1847
1865
1879
1894
1909
1930
1957
1968
1998
2021
2059
2043
2078
2087
2100
2128
2111
2067
2023
1964
1919
1893
1868
1835
1806
1797
1806
1809
1809
1783
1771
1792
1776
1801
1813
1822
1802
1792
1753
1754
1792
1831
1850
1901
1904
1895
1856
1840
1829
1808
1809
1801
1798
1795
1807
1830
1829
1840
1865
1779
2019
2807
2647
1927
1691
1516
1488
1664
1776
1825
1851
1862
1850
1867
1872
1899
1923
1920
1933
1963
1968
1990
2013
2026
2064
2090
2077
2071
2079
2067
2023
1983
1952
1911
1882
1808
1793
1780
1754
1744
1737
1739
1748
1745
1755
1776
1766
1770
1770
1764
1776
1764
1762
1767
1813
1839
1852
1856
1887
1866
1825
1812
1803
1776
1779
1755
1756
1761
1766
1776
1776
1805
1793
1753
2238
2894
2343
1810
1661
1456
1557
1709
1789
1799
1821
1856
1871
1871
1887
1911
1897
1889
1906
1929
1943
1971
2010
2025
2058
2075
2055
2053
2061
2032
1979
1957
1909
1858
1826
1808
1790
1766
1776
1777
1763
1757
1767
1773
1769
1766
1764
1779
1782
1777
1774
1751
1781
1824
1835
1854
1845
1838
1829
1783
1783
1771
1766
1751
1751
1749
1751
1765
1759
1751
1766
1785
1759
2182
2863
2374
1730
1601
1450
1476
1650
1759
1797
1795
1815
1839
1839
1856
1885
1903
1901
1905
1933
1943
1957
1990
2033
2060
2026
2042
2082
2070
2047
2011
1970
1919
1877
1835
1822
1799
1761
1769
1777
1766
1760
1765
1776
1765
1778
1782
1776
1767
1789
1779
1818
1849
1853
1903
1918
1910
1857
1837
1817
1792
1797
1791
1783
1803
1819
1817
1817
1803
1840
1815
1890
2433
2897
2192
1663
1584
1455
1575
1730
1818
1840
1846
1860
1886
1901
1902
1907
1942
1969
1983
1997
2018
2045
2085
2106
2110
2105
2108
2118
2111
2095
2039
1981
1933
1910
1874
1843
1835
1819
1797
1797
1806
1814
1811
1808
1810
1824
1824
1829
1839
1829
1835
1861
1884
1893
1945
1935
1938
1904
1871
1851
1830
1797
1795
1796
1789
1787
1790
1797
1801
1843
1807
1840
2447
2919
2187
1664
1565
1413
1584
1747
1804
1798
1837
1871
1873
1872
1883
1899
1915
1919
1923
1936
1975
1988
2017
2038
2059
2067
2078
2096
2071
2039
2007
1953
1881
1841
1818
1791
1776
1771
1771
1776
1757
1757
1761
1767
1783
1781
1767
1766
1781
1781
1788
1791
1808
1863
1871
1883
1890
1898
1858
1830
1818
1806
1783
1763
1771
1776
1786
1791
1805
1787
1834
1805
1813
2415
2907
2227
1715
1571
1432
1569
1715
1806
1790
1799
1819
1840
1843
1861
1873
1882
1904
1904
1933
1963
1980
2000
2020
2047
2064
2087
2090
2083
2047
2022
1968
1918
1888
1856
1830
1797
1793
1795
1792
1789
1782
1782
1785
1787
1797
1787
1776
1787
1813
1789
1771
1772
1781
1785
1817
1847
1854
1883
1881
1887
1840
1809
1792
1781
1779
1776
1751
1758
1759
1779
1777
1788
1803
1714
1893
2647
2704
2001
1711
1527
1462
1625
1743
1799
1795
1822
1842
1856
1862
1884
1887
1900
1917
1935
1952
1979
2010
2043
2064
2073
2103
2103
2102
2109
2075
2033
2006
1968
1902
1863
1826
1818
1811
1806
1791
1798
1803
1796
1791
1787
1777
1781
1771
1776
1792
1802
1791
1775
1757
1787
1835
1850
1866
1879
1878
1873
1825
1797
1803
1775
1760
1770
1775
1756
1750
1773
1765
1775
1802
1729
2038
2789
2474
1806
1616
1438
1453
1616
1730
1776
1792
1803
1802
1815
1829
1857
1856
1870
1878
1904
1914
1936
1978
1985
2002
2015
2058
2071
2046
2058
2019
1963
1929
1893
1861
1805
1795
1790
1782
1776
1775
1792
1770
1764
1765
1783
1799
1810
1797
1782
1792
1794
1787
1797
1833
1867
1895
1911
1901
1905
1879
1861
1810
1779
1795
1792
1776
1773
1807
1806
1813
1825
1832
1772
1982
2713
2702
1939
1648
1535
1422
1584
1728
1808
1817
1826
1837
1855
1873
1894
1906
1938
1937
1953
1986
2000
2012
2064
2083
2097
2119
2105
2127
2115
2107
2061
2000
1947
1913
1893
1872
1862
1845
1829
1808
1829
1846
1837
1835
1843
1851
1857
1873
1858
1867
1856
1861
1874
1914
1929
1955
1971
1980
1943
1914
1898
1874
1857
1847
1840
1837
1842
1834
1843
1847
1906
1895
1876
2393
3005
2363
1758
1673
1509
1596
1746
1842
1874
1883
1908
1933
1947
1965
1966
1968
1987
2003
2006
2032
2066
2096
2113
2131
2140
2153
2174
2174
2122
2077
2023
1982
1930
1895
1884
1863
1843
1845
1842
1826
1835
1818
1808
1814
1822
1819
1827
1834
1821
1835
1840
1840
1865
1898
1892
1919
1911
1926
1885
1852
1830
1805
1806
1776
1753
1749
1762
1776
1774
1767
1821
1790
1822
2416
2901
2225
1723
1600
1443
1584
1711
1781
1789
1808
1827
1841
1862
1885
1903
1909
1919
1927
1937
1955
1989
2017
2032
2066
2083
2096
2108
2095
2054
2019
1986
1930
1882
1857
1821
1785
1782
1781
1779
1773
1762
1781
1776
1762
1765
1758
1759
1755
1763
1776
1780
1760
1776
1819
1846
1872
1894
1890
1870
1828
1806
1778
1771
1772
1760
1749
1751
1776
1778
1758
1775
1807
1744
2080
2837
2489
1826
1638
1452
1477
1643
1737
1771
1792
1825
1831
1831
1840
1866
1889
1910
1905
1914
1952
1990
2011
2027
2034
2064
2069
2086
2095
2064
2031
1994
1942
1889
1851
1811
1782
1774
1773
1779
1771
1760
1767
1777
1771
1766
1769
1767
1782
1776
1763
1747
1763
1781
1773
1776
1833
1839
1856
1863
1872
1831
1790
1786
1766
1747
1739
1747
1744
1731
1740
1747
1754
1793
1732
1803
2450
2761
2067
1642
1535
1385
1521
1674
1738
1751
1779
1776
1785
1803
1831
1843
1851
1872
1893
1917
1915
1936
1979
2022
2032
2026
2058
2069
2065
2022
1966
1910
1863
1839
1826
1798
1735
1718
1730
1733
1727
1737
1743
1740
1759
1750
1759
1756
1769
1739
1756
1773
1776
1817
1851
1878
1872
1859
1841
1820
1791
1754
1751
1744
1743
1735
1709
1737
1751
1747
1786
1771
1808
2367
2858
2179
1619
1535
1396
1511
1648
1740
1761
1789
1800
1814
1807
1822
1830
1851
1872
1877
1904
1934
1953
1969
1991
2011
2041
2069
2052
2046
2013
1979
1945
1891
1855
1811
1793
1793
1798
1770
1781
1773
1776
1791
1787
1798
1778
1794
1808
1835
1827
1825
1854
1883
1874
1927
1939
1922
1887
1847
1853
1842
1824
1790
1794
1799
1795
1797
1804
1825
1866
1810
1808
2367
2921
2225
1648
1567
1408
1506
1653
1729
1767
1767
1789
1781
1767
1791
1806
1797
1827
1843
1840
1874
1909
1911
1943
1970
1972
1997
2014
2010
2000
1962
1894
1858
1826
1779
1774
1757
1735
1746
1744
1731
1755
1783
1763
1762
1773
1758
1776
1795
1789
1791
1833
1859
1891
1936
1921
1923
1883
1845
1862
1843
1815
1837
1839
1814
1815
1813
1822
1837
1891
1838
1871
2489
2953
2263
1771
1636
1501
1666
1783
1867
1877
1878
1895
1904
1904
1934
1955
1937
1954
1987
1999
2029
2055
2055
2080
2109
2112
2150
2150
2121
2096
2065
1997
1959
1914
1866
1839
1833
1808
1813
1823
1815
1813
1831
1809
1808
1825
1813
1818
1815
1791
1808
1840
1841
1872
1905
1897
1909
1886
1851
1843
1838
1808
1807
1810
1785
1795
1803
1802
1824
1882
1854
1808
2251
2918
2432
1865
1680
1515
1599
1707
1811
1837
1837
1872
1882
1863
1889
1918
1914
1929
1936
1903
1925
1968
1983
2022
2032
2030
2043
2038
2010
2009
1968
1907
1850
1816
1771
1761
1744
1719
1742
1734
1696
1712
1738
1725
1738
1759
1776
1806
1821
1811
1815
1861
1898
1904
1933
1959
1962
1927
1904
1898
1867
1829
1811
1819
1830
1829
1837
1840
1831
1872
1827
1890
2493
2882
2177
1712
1605
1443
1569
1718
1807
1836
1844
1856
1855
1860
1887
1917
1920
1930
1945
1967
1987
2027
2043
2085
2081
2102
2128
2119
2102
2065
2010
1982
1933
1877
1842
1834
1829
1810
1808
1803
1791
1791
1803
1801
1791
1798
1808
1815
1827
1821
1830
1857
1894
1924
1909
1907
1904
1853
1820
1808
1795
1792
1777
1774
1789
1775
1772
1789
1821
1844
1783
2191
2923
2435
1741
1605
1459
1479
1657
1764
1795
1830
1851
1846
1881
1897
1916
1936
1942
1961
1988
1997
2019
2055
2083
2099
2114
2131
2131
2124
2099
2064
1994
1953
1907
1873
1866
1854
1847
1831
1810
1808
1803
1814
1808
1819
1801
1787
1806
1822
1851
1867
1871
1905
1915
1909
1886
1853
1831
1810
1798
1780
1766
1777
1776
1786
1792
1793
1830
1859
1826
2275
2937
2375
1741
1613
1457
1535
1697
1780
1808
1824
1837
1855
1859
1856
1885
1895
1897
1929
1938
1981
1989
2011
2022
2038
2069
2084
2093
2082
2047
2017
1943
1888
1844
1808
1793
1781
1760
1751
1773
1761
1743
1749
1757
1765
1765
1773
1767
1769
1762
1786
1821
1850
1869
1891
1869
1872
1843
1822
1817
1791
1769
1784
1763
1773
1776
1775
1770
1779
1831
1787
1809
2437
2883
2192
1713
1579
1446
1586
1728
1808
1824
1834
1846
1855
1865
1881
1890
1883
1891
1926
1955
1975
2003
2016
2027
2041
2078
2102
2096
2087
2065
2014
1964
1920
1872
1834
1797
1781
1797
1808
1782
1768
1780
1760
1761
1776
1779
1766
1754
1780
1783
1774
1776
1780
1792
1838
1818
1850
1847
1865
1841
1805
1801
1767
1744
1741
1747
1727
1730
1732
1747
1741
1789
1763
1808
2421
2785
2086
1641
1535
1397
1563
1683
1765
1798
1809
1839
1867
1859
1872
1902
1905
1909
1927
1947
1974
2000
2027
2062
2078
2071
2085
2112
2075
2032
1978
1924
1893
1853
1829
1803
1776
1771
1755
1755
1757
1774
1749
1741
1756
1755
1743
1751
1771
1763
1760
1779
1791
1821
1815
1850
1873
1872
1841
1808
1795
1760
1739
1719
1718
1739
1735
1734
1744
1770
1786
1792
1765
2181
2864
2352
1686
1584
1431
1463
1645
1731
1773
1782
1796
1807
1807
1840
1847
1857
1872
1892
1903
1926
1975
1983
1996
2035
2065
2075
2090
2087
2061
2013
1968
1925
1877
1850
1826
1822
1795
1777
1787
1783
1797
1778
1767
1782
1797
1799
1795
1790
1804
1805
1813
1851
1889
1887
1911
1933
1922
1870
1831
1837
1818
1808
1812
1802
1807
1807
1823
1826
1823
1868
1855
1881
2443
2947
2242
1708
1616
1469
1615
1746
1834
1859
1862
1873
1890
1882
1894
1918
1935
1950
1970
1999
2001
2016
2035
2069
2095
2096
2115
2128
2111
2080
2043
1978
1936
1897
1863
1845
1815
1806
1804
1790
1793
1795
1781
1791
1791
1783
1792
1810
1791
1778
1785
1776
1776
1791
1818
1856
1870
1883
1873
1893
1859
1828
1808
1781
1775
1782
1767
1751
1772
1783
1801
1791
1830
1773
1964
2734
2682
1918
1647
1490
1471
1631
1744
1791
1799
1821
1846
1846
1850
1879
1887
1914
1911
1910
1939
1965
1989
2027
2073
2081
2101
2086
2090
2069
2032
1995
1952
1903
1846
1812
1791
1786
1793
1781
1765
1766
1766
1779
1774
1777
1787
1787
1789
1801
1791
1783
1786
1783
1808
1840
1864
1900
1875
1897
1872
1840
1814
1789
1775
1760
1759
1776
1766
1769
1775
1781
1822
1790
1805
2369
2881
2239
1744
1621
1467
1580
1701
1783
1795
1820
1823
1851
1863
1866
1878
1899
1904
1923
1936
1968
1990
2015
2054
2068
2080
2098
2110
2099
2085
2034
1991
1927
1872
1826
1815
1816
1787
1789
1786
1758
1749
1754
1762
1779
1797
1778
1771
1771
1776
1777
1776
1758
1748
1773
1782
1814
1851
1873
1861
1853
1886
1853
1808
1794
1783
1772
1769
1762
1763
1767
1776
1776
1807
1845
1770
2130
2832
2416
1766
1602
1457
1471
1650
1759
1785
1805
1821
1834
1846
1872
1875
1885
1878
1895
1916
1942
1974
1994
2022
2027
2059
2103
2098
2084
2076
2030
1981
1938
1879
1829
1806
1786
1759
1774
1776
1790
1744
1747
1766
1750
1761
1757
1774
1777
1764
1767
1739
1744
1774
1797
1806
1844
1838
1839
1786
1754
1762
1741
1724
1705
1702
1722
1729
1710
1717
1744
1762
1776
1786
2310
2832
2149
1609
1531
1381
1488
1664
1746
1791
1795
1818
1842
1847
1875
1877
1904
1926
1927
1947
1987
2026
2045
2061
2090
2102
2118
2119
2115
2091
2061
1999
1969
1935
1890
1854
1844
1839
1815
1808
1817
1819
1809
1807
1813
1824
1829
1836
1830
1831
1827
1843
1876
1905
1911
1938
1965
1950
1904
1893
1871
1837
1840
1825
1806
1833
1826
1810
1808
1811
1847
1840
1834
2341
2943
2304
1728
1631
1472
1571
1721
1833
1846
1845
1858
1876
1892
1919
1932
1943
1942
1955
1983
2009
2032
2061
2081
2109
2141
2128
2114
2119
2113
2058
1986
1946
1917
1872
1847
1827
1822
1808
1793
1795
1795
1805
1822
1821
1811
1826
1828
1819
1819
1818
1810
1819
1828
1859
1882
1872
1921
1926
1920
1872
1845
1827
1814
1809
1813
1825
1806
1787
1824
1813
1793
1825
1777
1823
2448
2864
2181
1716
1596
1456
1585
1713
1796
1808
1831
1835
1847
1856
1878
1882
1894
1917
1936
1937
1954
1989
2025
2063
2077
2088
2086
2091
2082
2078
2039
1984
1922
1878
1842
1826
1810
1793
1779
1782
1775
1778
1787
1777
1775
1773
1792
1793
1794
1794
1794
1783
1795
1818
1845
1872
1918
1925
1910
1860
1822
1822
1806
1813
1802
1778
1798
1811
1792
1789
1785
1806
1808
1774
2226
2909
2382
1780
1645
1471
1531
1677
1780
1818
1813
1819
1854
1842
1847
1867
1886
1917
1951
1970
1981
2022
2059
2081
2103
2099
2118
2108
2093
2066
2045
1993
1939
1914
1890
1871
1820
1797
1793
1785
1780
1773
1775
1785
1787
1777
1789
1789
1788
1792
1791
1782
1777
1798
1825
1855
1872
1888
1892
1884
1846
1802
1808
1797
1790
1740
1726
1731
1746
1738
1744
1757
1798
1733
1882
2559
2739
1971
1590
1515
1402
1554
1685
1767
1780
1771
1802
1835
1861
1875
1877
1888
1903
1927
1953
1971
2000
2032
2033
2041
2073
2066
2083
2075
2032
1973
1920
1883
1841
1809
1782
1760
1745
1754
1745
1760
1738
1744
1760
1745
1749
1767
1771
1767
1776
1776
1799
1840
1861
1874
1904
1904
1873
1854
1827
1811
1804
1803
1794
1787
1779
1761
1765
1778
1799
1831
1772
2089
2835
2544
1808
1600
1470
1457
1650
1757
1811
1819
1840
1856
1869
1883
1895
1904
1920
1929
1936
1953
1983
2006
2042
2046
2062
2091
2107
2100
2095
2056
1997
1953
1919
1872
1841
1819
1819
1810
1792
1782
1799
1805
1790
1792
1802
1803
1792
1801
1798
1803
1807
1829
1859
1872
1907
1904
1904
1872
1831
1810
1791
1772
1779
1775
1767
1777
1793
1777
1776
1822
1788
1838
2458
2868
2160
1680
1569
1428
1581
1723
1785
1799
1814
1827
1838
1840
1859
1873
1891
1903
1936
1935
1977
2002
2015
2038
2071
2081
2085
2096
2087
2066
2027
1964
1905
1863
1851
1837
1808
1777
1774
1773
1776
1738
1725
1719
1721
1727
1735
1741
1733
1737
1732
1722
1721
1738
1755
1794
1805
1835
1855
1869
1815
1798
1789
1776
1747
1751
1755
1759
1776
1785
1782
1776
1825
1759
1870
2598
2786
2065
1712
1535
1431
1588
1712
1745
1757
1776
1795
1834
1833
1831
1856
1873
1872
1890
1899
1883
1925
1955
1949
1989
2000
1990
2005
1999
1956
1913
1886
1813
1774
1751
1712
1703
1713
1715
1745
1749
1703
1716
1727
1741
1770
1776
1740
1767
1761
1774
1787
1793
1813
1851
1879
1869
1907
1875
1830
1838
1821
1787
1805
1805
1770
1795
1791
1786
1795
1854
1819
1798
2338
2870
2258
1745
1638
1469
1535
1689
1809
1830
1839
1878
1890
1869
1889
1910
1934
1958
1971
1967
2007
2046
2039
2066
2098
2127
2131
2133
2131
2117
2064
2003
1990
1940
1872
1879
1871
1829
1830
1834
1826
1827
1843
1833
1841
1839
1838
1854
1853
1842
1839
1830
1837
1889
1915
1907
1973
1963
1935
1886
1866
1847
1851
1837
1810
1831
1855
1825
1826
1826
1819
1882
1859
1850
2420
2958
2242
1691
1630
1457
1578
1723
1805
1840
1840
1843
1882
1886
1892
1915
1910
1931
1950
1969
1989
2029
2034
2058
2105
2116
2101
2119
2109
2068
2045
1997
1939
1917
1867
1830
1833
1821
1795
1808
1811
1808
1808
1799
1790
1815
1837
1819
1829
1863
1887
1918
1950
1981
1999
2015
2029
2015
1984
1971
1939
1918
1892
1886
1889
1889
1883
1874
1881
1891
1940
1872
2064
2811
2839
2058
1744
1639
1582
1732
1859
1907
1947
1963
1959
1959
1955
1977
1990
1999
2005
2021
2032
2076
2090
2114
2122
2129
2135
2129
2129
2125
2086
2038
1993
1937
1882
1855
1841
1808
1797
1798
1786
1771
1777
1774
1764
1770
1766
1766
1769
1774
1755
1761
1770
1773
1773
1808
1836
1845
1874
1878
1863
1828
1792
1763
1759
1750
1744
1737
1737
1730
1741
1745
1772
1780
1713
2006
2770
2481
1783
1579
1424
1447
1607
1713
1744
1771
1783
1808
1827
1828
1838
1853
1872
1904
1910
1925
1954
1972
1989
2022
2034
2042
2047
2058
2034
2011
1957
1913
1863
1819
1781
1767
1774
1772
1744
1741
1740
1758
1758
1744
1760
1777
1766
1757
1764
1776
1790
1776
1763
1757
1787
1825
1870
1846
1855
1850
1875
1857
1820
1810
1819
1792
1781
1765
1774
1790
1803
1799
1808
1840
1760
1871
2585
2785
2075
1709
1575
1472
1620
1731
1794
1814
1856
1870
1883
1894
1898
1901
1907
1935
1958
1975
1999
2027
2066
2094
2116
2139
2147
2144
2111
2071
2032
2000
1954
1917
1897
1857
1815
1815
1811
1792
1793
1805
1802
1791
1807
1822
1834
1823
1823
1834
1818
1825
1803
1803
1808
1822
1824
1823
1840
1872
1910
1921
1891
1904
1904
1865
1872
1838
1823
1822
1829
1815
1815
1822
1809
1825
1851
1851
1805
2297
2911
2339
1762
1633
1437
1517
1692
1779
1808
1821
1834
1838
1862
1887
1882
1882
1909
1922
1943
1967
1967
1985
2015
2032
2065
2074
2076
2063
2068
2000
1941
1894
1842
1826
1789
1772
1773
1770
1744
1763
1755
1745
1742
1755
1750
1747
1755
1761
1757
1755
1776
1797
1769
1763
1793
1790
1807
1872
1887
1903
1874
1882
1873
1843
1824
1807
1777
1787
1786
1783
1777
1765
1769
1765
1778
1735
1827
2443
2831
2076
1616
1535
1378
1495
1680
1777
1782
1780
1798
1819
1842
1872
1881
1903
1910
1909
1923
1949
1989
2019
2032
2061
2078
2096
2102
2096
2059
2011
1968
1918
1867
1840
1818
1793
1779
1779
1787
1776
1774
1767
1769
1786
1777
1770
1783
1793
1783
1789
1805
1808
1802
1797
1825
1868
1885
1899
1935
1943
1926
1887
1859
1862
1849
1823
1808
1811
1815
1818
1808
1821
1822
1847
1819
1859
2448
2880
2177
1684
1601
1441
1584
1726
1808
1831
1838
1843
1870
1903
1916
1921
1925
1935
1961
1979
2000
2032
2058
2074
2105
2112
2121
2145
2134
2101
2058
1990
1956
1914
1879
1855
1833
1813
1824
1830
1824
1808
1808
1815
1827
1835
1846
1822
1805
1808
1819
1815
1818
1831
1825
1839
1829
1847
1897
1891
1935
1903
1891
1882
1872
1842
1829
1820
1808
1808
1814
1808
1825
1817
1792
1831
1801
1849
2450
2896
2203
1732
1621
1471
1584
1719
1804
1808
1829
1856
1854
1853
1869
1888
1890
1904
1918
1923
1967
1989
1994
2011
2027
2065
2078
2079
2073
2064
2023
1952
1890
1850
1825
1777
1745
1763
1776
1745
1733
1739
1749
1753
1744
1746
1758
1753
1755
1771
1759
1749
1762
1755
1761
1758
1738
1729
1748
1747
1763
1803
1820
1830
1847
1867
1885
1849
1832
1808
1805
1794
1783
1766
1776
1776
1782
1779
1786
1821
1750
2003
2788
2629
1925
1686
1509
1486
1647
1751
1804
1829
1843
1857
1893
1890
1894
1905
1910
1937
1955
1973
1998
2018
2044
2064
2091
2087
2106
2122
2128
2074
2012
1963
1915
1888
1849
1812
1798
1793
1789
1777
1778
1783
1788
1778
1777
1798
1793
1799
1802
1793
1777
1796
1814
1808
1824
1826
1803
1797
1808
1825
1821
1837
1869
1910
1914
1930
1938
1922
1907
1904
1859
1823
1818
1817
1809
1810
1805
1829
1843
1818
1827
1776
1823
2449
2832
2178
1741
1610
1447
1571
1696
1776
1805
1806
1840
1850
1849
1870
1872
1874
1872
1904
1936
1958
1977
2013
2002
2034
2070
2058
2068
2067
2047
2022
1984
1933
1879
1845
1819
1791
1791
1749
1744
1774
1771
1763
1766
1771
1767
1776
1783
1777
1766
1757
1767
1773
1757
1770
1776
1781
1811
1863
1862
1871
1911
1920
1898
1872
1856
1838
1793
1772
1792
1804
1807
1776
1791
1802
1783
1815
1743
1969
2733
2687
1931
1631
1535
1450
1605
1725
1794
1806
1829
1856
1873
1898
1905
1907
1926
1927
1955
1989
1996
2003
2038
2066
2069
2087
2107
2096
2079
2064
2020
1963
1907
1852
1812
1797
1789
1787
1785
1767
1777
1790
1802
1803
1798
1808
1818
1810
1818
1823
1822
1825
1830
1831
1840
1875
1902
1932
1968
1952
1922
1881
1860
1843
1829
1815
1827
1807
1795
1799
1808
1825
1821
1835
1808
1804
2320
2939
2325
1750
1644
1456
1520
1706
1808
1831
1838
1842
1870
1879
1911
1920
1922
1954
1964
1973
1979
1998
2023
2037
2045
2083
2106
2105
2110
2099
2054
2014
1962
1917
1872
1850
1829
1828
1824
1808
1808
1807
1807
1817
1819
1823
1811
1808
1817
1813
1813
1819
1827
1833
1838
1835
1845
1869
1882
1902
1907
1915
1882
1846
1837
1808
1794
1790
1795
1805
1801
1797
1786
1778
1810
1809
1732
2145
2878
2455
1807
1633
1451
1502
1663
1759
1790
1806
1829
1849
1847
1856
1863
1889
1910
1920
1930
1959
1973
1994
2015
2042
2064
2092
2105
2103
2089
2047
2001
1962
1918
1877
1840
1803
1783
1792
1797
1777
1781
1761
1757
1776
1788
1782
1778
1785
1767
1776
1794
1790
1795
1801
1808
1806
1823
1851
1867
1872
1906
1911
1914
1870
1843
1839
1814
1801
1798
1790
1783
1791
1790
1793
1807
1831
1751
1854
2559
2801
2103
1728
1565
1472
1611
1729
1795
1813
1838
1840
1846
1858
1872
1885
1893
1907
1920
1926
1942
1988
2027
2037
2059
2063
2087
2112
2099
2081
2036
1995
1953
1888
1849
1823
1807
1801
1786
1781
1777
1776
1787
1795
1781
1773
1765
1776
1782
1789
1790
1787
1798
1795
1794
1794
1793
1789
1823
1851
1867
1887
1898
1886
1840
1825
1816
1787
1790
1782
1755
1735
1743
1744
1734
1751
1783
1712
2015
2768
2531
1856
1653
1506
1439
1613
1719
1778
1811
1813
1824
1843
1880
1895
1883
1903
1890
1905
1929
1957
1985
2025
2059
2065
2090
2096
2095
2096
2061
2003
1950
1905
1879
1841
1818
1822
1791
1786
1796
1789
1774
1776
1744
1763
1788
1778
1778
1808
1808
1799
1806
1804
1808
1823
1856
1885
1891
1919
1921
1897
1857
1822
1834
1833
1809
1792
1789
1786
1777
1783
1790
1808
1840
1777
2017
2737
2623
1916
1654
1558
1435
1605
1725
1801
1837
1855
1856
1860
1872
1889
1910
1912
1930
1951
1951
1984
2022
2055
2077
2070
2095
2107
2100
2090
2054
2003
1959
1925
1889
1861
1840
1815
1795
1811
1814
1786
1766
1801
1821
1791
1805
1793
1789
1797
1808
1826
1821
1813
1809
1837
1878
1884
1909
1927
1922
1902
1872
1850
1849
1825
1826
1820
1818
1813
1809
1808
1839
1857
1872
1776
2080
2851
2591
1887
1680
1533
1509
1680
1787
1823
1838
1856
1870
1888
1904
1904
1911
1930
1941
1946
1953
1975
2004
2023
2041
2064
2093
2096
2101
2101
2064
2013
1952
1905
1867
1841
1829
1821
1822
1808
1799
1807
1808
1798
1795
1796
1806
1816
1812
1813
1810
1794
1797
1814
1838
1855
1872
1895
1893
1910
1904
1898
1857
1842
1840
1822
1801
1799
1803
1808
1798
1790
1789
1794
1835
1760
1904
2643
2769
2042
1702
1553
1458
1607
1717
1776
1795
1803
1799
1808
1794
1804
1811
1820
1837
1865
1851
1867
1907
1936
1943
1973
1987
1982
2001
1986
1947
1913
1841
1771
1729
1699
1659
1671
1659
1650
1664
1662
1659
1674
1662
1677
1718
1691
1681
1690
1689
1700
1719
1696
1697
1721
1725
1735
1783
1776
1806
1819
1815
1840
1815
1777
1742
1747
1733
1730
1745
1732
1733
1762
1742
1754
1783
1709
2066
2839
2446
1766
1638
1435
1417
1611
1728
1762
1797
1822
1808
1792
1773
1731
1709
1685
1678
1677
1707
1714
1725
1781
1835
1787
1779
1870
1927
1953
1963
1939
1917
1917
1914
1856
1845
1862
1857
1853
1872
1866
1887
1901
1897
1898
1903
1911
1907
1909
1889
1895
1925
1919
1938
1967
1970
2017
2018
1991
1994
1963
1905
1915
1898
1889
1904
1909
1885
1885
1873
1869
1910
1951
1887
2297
3011
2502
1855
1718
1535
1565
1761
1851
1889
1909
1911
1939
1968
1952
1989
2012
2000
2009
2015
2031
2074
2099
2102
2131
2149
2145
2157
2134
2115
2097
2056
1987
1938
1918
1872
1865
1869
1846
1845
1839
1822
1839
1843
1813
1833
1841
1800
1805
1807
1800
1814
1840
1865
1910
1936
1973
2013
2019
1987
1942
1922
1920
1914
1903
1904
1897
1887
1893
1894
1879
1883
1936
1869
1979
2694
2907
2150
1760
1658
1535
1689
1811
1900
1893
1887
1892
1911
1936
1940
1951
1967
1975
1966
1984
1995
2017
2047
2057
2071
2096
2098
2099
2085
2047
2013
1962
1905
1874
1840
1808
1792
1791
1802
1783
1786
1791
1792
1785
1791
1795
1792
1779
1789
1763
1750
1773
1779
1790
1784
1805
1835
1855
1859
1861
1862
1805
1783
1781
1776
1767
1744
1733
1740
1750
1751
1753
1767
1801
1721
1856
2604
2707
1990
1666
1511
1424
1584
1698
1760
1758
1788
1805
1815
1840
1845
1846
1861
1877
1893
1913
1931
1953
1984
1988
2006
2021
2032
2032
2044
2019
1973
1933
1878
1845
1808
1783
1744
1743
1748
1748
1749
1739
1737
1735
1749
1759
1744
1760
1767
1750
1758
1754
1767
1770
1761
1780
1808
1854
1884
1904
1882
1911
1899
1869
1841
1830
1821
1802
1803
1821
1808
1803
1808
1813
1824
1799
1808
2359
2893
2275
1766
1655
1472
1557
1694
1808
1805
1803
1817
1857
1879
1888
1894
1906
1902
1914
1962
1961
1990
2017
2017
2054
2086
2089
2087
2102
2055
2018
1981
1931
1882
1842
1807
1788
1790
1787
1765
1766
1771
1789
1790
1798
1797
1793
1797
1785
1771
1782
1776
1801
1808
1814
1854
1879
1907
1925
1921
1890
1859
1850
1814
1782
1778
1776
1794
1784
1782
1776
1776
1835
1836
1792
2261
2918
2352
1735
1622
1461
1491
1680
1769
1797
1833
1844
1867
1854
1859
1891
1907
1936
1955
1969
1979
1997
1994
2020
2045
2061
2075
2080
2080
2037
1994
1949
1943
1893
1838
1811
1808
1797
1792
1783
1782
1775
1779
1776
1766
1776
1801
1808
1779
1782
1807
1808
1814
1819
1858
1886
1926
1923
1922
1858
1835
1824
1791
1767
1776
1775
1776
1776
1790
1792
1783
1818
1821
1827
2336
2895
2255
1682
1597
1435
1520
1683
1778
1817
1837
1863
1858
1882
1915
1911
1904
1932
1942
1952
1989
2000
2015
2045
2070
2085
2097
2102
2101
2070
2031
1971
1936
1904
1879
1838
1821
1808
1791
1778
1777
1780
1778
1771
1775
1787
1796
1792
1776
1779
1783
1794
1808
1825
1839
1861
1904
1904
1897
1856
1840
1829
1797
1773
1776
1735
1709
1715
1726
1739
1744
1802
1787
1783
2313
2891
2285
1734
1623
1461
1553
1709
1786
1802
1837
1858
1874
1887
1892
1899
1913
1937
1935
1926
1967
2003
2010
2032
2071
2071
2096
2112
2108
2092
2054
1988
1936
1901
1853
1823
1807
1792
1802
1794
1783
1776
1786
1787
1781
1777
1791
1797
1787
1785
1806
1821
1823
1822
1840
1861
1865
1867
1907
1915
1911
1888
1866
1837
1824
1826
1835
1838
1823
1814
1824
1819
1827
1866
1819
1834
2414
2903
2272
1785
1667
1499
1618
1745
1827
1840
1852
1872
1893
1906
1909
1934
1945
1953
1972
1979
1995
2015
2032
2063
2096
2098
2130
2131
2125
2096
2047
2003
1952
1894
1850
1851
1840
1818
1802
1807
1805
1807
1814
1824
1824
1839
1815
1795
1791
1808
1815
1812
1809
1791
1805
1852
1877
1856
1887
1888
1905
1892
1856
1825
1813
1790
1757
1762
1751
1744
1747
1761
1776
1835
1808
1739
2231
2863
2304
1785
1647
1448
1530
1667
1762
1781
1809
1827
1814
1839
1842
1871
1879
1883
1899
1923
1953
1971
1985
2001
2033
2065
2066
2055
2064
2032
1984
1914
1866
1840
1813
1780
1754
1763
1775
1749
1744
1735
1758
1776
1786
1773
1741
1757
1767
1772
1776
1782
1779
1773
1801
1790
1811
1828
1829
1889
1897
1883
1835
1817
1811
1772
1769
1777
1771
1787
1773
1730
1753
1767
1791
1744
1863
2513
2783
2080
1654
1568
1422
1535
1677
1770
1781
1832
1833
1824
1846
1871
1878
1894
1916
1911
1936
1951
1971
1998
2011
2047
2063
2080
2086
2067
2047
2014
1969
1914
1873
1851
1826
1809
1805
1758
1771
1795
1786
1790
1804
1803
1793
1779
1781
1795
1808
1808
1823
1840
1850
1873
1903
1936
1936
1889
1856
1857
1815
1797
1786
1779
1789
1799
1792
1809
1808
1811
1835
1791
2192
2923
2448
1776
1639
1471
1483
1677
1776
1813
1821
1840
1867
1886
1888
1887
1901
1920
1933
1961
1971
1994
2017
2039
2067
2087
2094
2098
2091
2064
2025
1989
1937
1907
1858
1839
1814
1809
1797
1787
1791
1794
1790
1799
1808
1798
1805
1819
1831
1839
1821
1809
1817
