ecg_value
1919
1903
1949
1927
1959
1987
1968
2016
1998
2019
2055
2033
2084
2034
2041
2037
1990
2022
1981
1979
1970
1923
1943
1902
1899
1901
1856
1883
1850
1867
1872
1837
1877
1837
1855
1872
1841
1877
1857
1872
1887
1870
1902
1862
1886
1902
1859
1894
1859
1859
1874
1839
1878
1842
1855
1873
1843
1872
1844
1869
1897
1893
1949
1917
1978
1972
1925
1922
1872
1849
1841
1804
1833
1794
1808
1802
1775
1817
1794
1808
1749
1750
2197
3055
2992
1905
1499
1442
1469
1714
1782
1744
1790
1771
1802
1815
1796
1840
1806
1837
1854
1840
1887
1867
1904
1935
1927
1963
1936
1942
1939
1895
1924
1877
1872
1857
1812
1840
1781
1780
1778
1745
1773
1726
1737
1744
1721
1750
1717
1735
1745
1718
1774
1727
1765
1782
1736
1774
1741
1765
1765
1733
1769
1728
1743
1750
1723
1743
1699
1718
1729
1706
1735
1697
1711
1738
1721
1782
1748
1794
1829
1791
1791
1722
1699
1689
1655
1678
1635
1660
1659
1629
1663
1644
1661
1636
1535
1759
2384
3013
2272
1470
1405
1237
1361
1596
1615
1648
1616
1647
1654
1648
1682
1661
1699
1709
1686
1738
1728
1760
1777
1771
1825
1795
1823
1811
1775
1823
1780
1778
1773
1724
1753
1684
1686
1680
1646
1674
1631
1653
1655
1632
1680
1650
1674
1691
1670
1702
1675
1697
1696
1685
1721
1680
1723
1729
1691
1725
1696
1715
1707
1674
1728
1685
1702
1722
1697
1744
1744
1781
1821
1831
1856
1777
1740
1742
1699
1713
1671
1694
1707
1670
1712
1674
1714
1727
1664
1677
1792
2417
3101
2417
1616
1455
1399
1390
1606
1755
1690
1718
1744
1734
1795
1773
1803
1815
1803
1859
1835
1885
1887
1881
1953
1931
1953
1941
1934
1975
1929
1947
1930
1906
1925
1882
1907
1861
1807
1885
1829
1855
1853
1823
1875
1855
1867
1861
1865
1884
1891
1923
1919
1909
1959
1921
1952
1962
1920
1975
1921
1959
1974
1931
1968
1939
1984
1983
1947
1998
1974
1985
2027
2021
2068
2096
2128
2079
2015
2031
1968
1979
1958
1919
1967
1933
1955
1966
1951
2000
1945
1914
1972
2434
3428
3015
1999
1695
1591
1603
1807
1942
1938
1931
1991
1936
1975
2000
1972
2021
1991
2039
2063
2043
2098
2065
2125
2119
2106
2134
2089
2107
2103
2064
2094
2035
2034
2032
2000
2017
1945
1963
1943
1920
1957
1910
1941
1935
1913
1959
1926
1955
1951
1935
1975
1949
1969
1973
1966
1993
1936
1966
1994
1951
1998
1930
1968
1969
1931
1973
1933
1964
1956
1935
1999
1984
2023
2011
2041
2081
2014
1989
1957
1921
1937
1890
1913
1902
1871
1922
1874
1898
1894
1872
1872
1825
2190
3024
3255
2206
1633
1535
1515
1739
1893
1855
1867
1892
1879
1929
1902
1938
1927
1920
1987
1952
1984
1983
1989
2032
2026
2068
2068
2034
2073
2026
2014
2017
1990
1983
1916
1948
1917
1874
1892
1850
1873
1860
1830
1881
1834
1841
1846
1828
1879
1838
1882
1886
1851
1882
1851
1876
1879
1861
1889
1843
1878
1872
1837
1872
1840
1872
1878
1839
1878
1823
1879
1907
1893
1919
1938
1978
1946
1868
1888
1804
1828
1807
1783
1813
1759
1799
1794
1794
1829
1781
1758
1759
2062
2928
3091
2030
1535
1396
1425
1663
1783
1789
1739
1799
1764
1807
1818
1819
1845
1815
1865
1865
1853
1921
1894
1947
1952
1939
1981
1940
1951
1950
1911
1933
1881
1901
1874
1821
1861
1805
1824
1792
1760
1793
1757
1791
1779
1768
1819
1754
1791
1804
1778
1809
1776
1792
1792
1778
1818
1781
1805
1782
1764
1807
1744
1775
1757
1744
1787
1730
1748
1744
1719
1769
1757
1811
1786
1799
1881
1819
1792
1738
1699
1726
1670
1687
1681
1660
1694
1644
1691
1682
1659
1680
1567
1753
2392
3008
2334
1489
1423
1287
1347
1614
1616
1632
1620
1633
1695
1651
1683
1698
1675
1732
1712
1754
1757
1754
1807
1776
1817
1813
1795
1833
1783
1809
1796
1771
1806
1728
1741
1712
1682
1696
1624
1667
1648
1622
1673
1629
1648
1651
1643
1696
1650
1680
1680
1678
1716
1685
1711
1690
1673
1719
1683
1723
1717
1693
1729
1680
1714
1712
1693
1735
1713
1781
1773
1766
1873
1840
1840
1776
1737
1750
1687
1712
1707
1686
1719
1680
1721
1714
1701
1737
1654
1665
1936
2685
3010
2064
1488
1461
1323
1458
1652
1727
1712
1723
1776
1744
1798
1791
1776
1841
1808
1854
1857
1859
1902
1874
1936
1946
1927
1967
1934
1951
1938
1922
1953
1878
1919
1886
1851
1872
1838
1874
1842
1840
1879
1840
1870
1857
1853
1903
1865
1912
1917
1915
1963
1907
1943
1943
1936
1982
1936
1978
1968
1951
1986
1950
2007
1984
1961
2002
1962
2026
2054
2063
2096
2117
2157
2112
2032
2055
1979
1985
1974
1968
2000
1955
1984
1963
1966
2010
1955
1933
1943
2325
3263
3268
2192
1731
1645
1623
1793
1968
1943
1945
1993
1966
2013
2006
1999
2037
2001
2059
2064
2067
2109
2079
2138
2140
2130
2164
2114
2145
2121
2096
2128
2064
2086
2047
2015
2031
1966
1993
1986
1946
1970
1935
1959
1946
1930
1969
1933
1983
1968
1959
1988
1953
1984
1973
1959
1994
1967
1992
1975
1973
1998
1947
1984
1961
1951
1983
1937
1967
1966
1947
1979
1959
2035
2018
2021
2111
2047
2034
1968
1937
1952
1887
1906
1891
1874
1921
1879
1907
1888
1872
1902
1794
1921
2465
3361
2832
1817
1617
1461
1587
1840
1822
1857
1853
1847
1901
1872
1909
1904
1899
1943
1920
1966
1958
1966
2007
1983
2028
2011
2005
2032
1982
2005
1975
1963
1978
1904
1917
1879
1858
1867
1807
1831
1819
1808
1839
1795
1840
1811
1805
1836
1807
1842
1831
1827
1857
1808
1855
1839
1827
1863
1826
1860
1826
1821
1858
1815
1855
1840
1821
1867
1820
1846
1825
1840
1902
1882
1903
1927
1936
1952
1865
1866
1831
1803
1803
1774
1799
1787
1774
1808
1767
1803
1791
1751
1727
1910
2692
3219
2241
1626
1456
1410
1621
1765
1785
1737
1786
1793
1791
1828
1808
1850
1845
1850
1893
1862
1917
1913
1910
1958
1925
1971
1959
1936
1943
1902
1927
1904
1887
1883
1826
1838
1794
1776
1796
1748
1770
1744
1743
1771
1718
1745
1721
1728
1756
1715
1759
1741
1745
1763
1714
1747
1727
1714
1746
1699
1742
1728
1712
1738
1681
1717
1709
1707
1730
1680
1712
1698
1703
1759
1727
1762
1776
1808
1824
1753
1722
1691
1664
1677
1629
1678
1645
1636
1675
1642
1670
1647
1632
1591
1693
2341
2982
2326
1531
1382
1299
1322
1532
1637
1595
1648
1629
1632
1677
1645
1693
1693
1703
1737
1707
1763
1751
1776
1810
1781
1823
1808
1807
1817
1771
1814
1783
1760
1771
1712
1743
1698
1671
1695
1641
1669
1660
1650
1687
1645
1678
1682
1681
1713
1669
1712
1695
1679
1718
1699
1741
1719
1716
1750
1713
1751
1725
1716
1754
1717
1758
1741
1733
1744
1712
1771
1759
1806
1840
1809
1911
1891
1841
1823
1769
1773
1743
1731
1750
1717
1759
1745
1767
1777
1748
1792
1712
1776
2310
3104
2787
1791
1526
1511
1385
1649
1775
1794
1810
1791
1854
1849
1863
1899
1862
1920
1915
1923
1967
1941
1994
1997
2005
2037
2014
2059
2027
2000
2026
1989
2018
1963
1958
1984
1920
1947
1926
1915
1941
1904
1933
1909
1923
1943
1907
1968
1941
1959
1987
1952
2007
1990
1985
2027
1997
2011
1994
2000
2018
1984
2025
1999
1997
2036
1986
2028
2011
2013
2033
2000
2047
2078
2112
2128
2117
2194
2155
2108
2096
2021
2057
2005
1984
2011
1975
2013
1982
1999
2016
1983
2012
1917
2071
2766
3579
2781
1866
1686
1601
1697
1936
1953
1949
1982
1954
2003
1984
1994
2032
1984
2043
2046
2043
2087
2045
2099
2099
2115
2130
2097
2128
2081
2089
2100
2032
2064
2038
2006
2011
1958
1968
1932
1929
1938
1904
1943
1912
1907
1936
1901
1936
1922
1925
1950
1919
1950
1929
1953
1969
1931
1968
1940
1938
1963
1918
1968
1949
1921
1941
1926
1962
1931
1943
1943
1910
1967
1916
1935
2001
1981
2011
2033
2063
2060
1983
1969
1936
1923
1917
1883
1919
1862
1870
1901
1865
1911
1895
1857
1811
1897
2539
3389
2704
1810
1583
1488
1599
1801
1854
1802
1851
1840
1854
1885
1865
1883
1870
1898
1914
1890
1951
1922
1949
1997
1961
2001
1969
1970
1973
1917
1951
1922
1907
1907
1858
1875
1834
1823
1838
1780
1814
1787
1776
1794
1763
1803
1786
1791
1808
1777
1809
1790
1797
1826
1777
1824
1808
1800
1808
1782
1822
1794
1799
1820
1783
1823
1797
1796
1816
1773
1815
1793
1795
1809
1782
1831
1839
1873
1871
1881
1950
1907
1873
1843
1794
1817
1772
1767
1786
1746
1783
1749
1773
1785
1749
1750
1669
1821
2511
3203
2443
1642
1494
1403
1534
1743
1742
1750
1776
1753
1807
1795
1811
1838
1808
1856
1840
1860
1898
1875
1919
1903
1926
1962
1919
1949
1918
1903
1907
1867
1901
1858
1841
1833
1776
1796
1759
1770
1775
1731
1767
1733
1733
1745
1715
1761
1734
1744
1758
1723
1775
1739
1744
1766
1740
1779
1744
1754
1772
1726
1771
1731
1733
1755
1733
1751
1722
1741
1746
1701
1747
1718
1735
1750
1749
1799
1753
1813
1856
1807
1811
1744
1731
1725
1675
1712
1677
1674
1691
1645
1687
1658
1680
1663
1567
1794
2463
2986
2232
1468
1455
1301
1369
1602
1615
1667
1648
1671
1705
1670
1731
1701
1718
1745
1725
1779
1765
1797
1823
1793
1856
1840
1845
1850
1797
1840
1807
1805
1811
1765
1787
1740
1739
1744
1694
1721
1680
1685
1719
1680
1722
1711
1705
1728
1708
1755
1723
1744
1756
1724
1782
1744
1759
1773
1739
1789
1749
1776
1792
1744
1776
1743
1766
1785
1744
1802
1773
1796
1802
1757
1828
1838
1847
1856
1892
1949
1896
1853
1839
1778
1811
1756
1774
1793
1760
1797
1770
1783
1808
1764
1762
1735
2081
2914
3071
2141
1578
1575
1461
1555
1797
1803
1811
1854
1824
1886
1850
1885
1915
1902
1961
1931
1957
1987
1971
2038
2022
2046
2066
2027
2075
2033
2033
2055
2009
2038
1983
2000
1999
1950
1990
1931
1942
1961
1923
1973
1939
1963
1983
1936
1991
1966
1985
2014
1985
2032
2000
2013
2045
2001
2042
2003
2018
2035
2000
2045
2010
2010
2030
2000
2055
2000
2011
2017
1998
2043
1994
2045
2103
2064
2112
2128
2139
2101
2015
2042
1980
1969
1975
1934
1979
1949
1952
1967
1936
1986
1931
1874
1963
2439
3454
3007
1967
1699
1535
1618
1821
1923
1915
1886
1958
1922
1936
1970
1954
1999
1962
1996
2006
1983
2038
2022
2047
2075
2043
2099
2062
2064
2061
2012
2047
2000
1985
1987
1935
1968
1904
1905
1917
1875
1907
1862
1874
1889
1853
1903
1871
1894
1911
1887
1930
1893
1911
1923
1898
1938
1898
1913
1931
1894
1937
1905
1914
1920
1889
1938
1887
1891
1899
1871
1915
1877
1896
1906
1915
1984
1935
1987
2017
1968
1959
1885
1887
1872
1833
1861
1831
1846
1856
1804
1858
1821
1843
1830
1739
1972
2616
3351
2475
1666
1571
1409
1603
1805
1781
1825
1801
1832
1856
1833
1878
1859
1895
1909
1875
1936
1917
1945
1970
1956
2017
1974
1985
1986
1939
1974
1925
1934
1929
1871
1891
1839
1833
1835
1794
1830
1778
1802
1808
1771
1814
1776
1805
1809
1786
1831
1803
1824
1837
1796
1858
1825
1836
1840
1821
1851
1825
1840
1840
1808
1851
1808
1830
1839
1806
1862
1825
1838
1840
1808
1850
1810
1854
1904
1862
1923
1941
1947
1936
1859
1872
1807
1814
1820
1782
1823
1789
1800
1808
1789
1829
1790
1741
1765
2159
3115
2960
1897
1577
1425
1485
1683
1783
1785
1759
1824
1803
1827
1835
1809
1870
1841
1872
1887
1875
1936
1918
1933
1948
1927
1983
1934
1939
1935
1884
1913
1866
1874
1853
1796
1815
1759
1762
1761
1724
1751
1714
1740
1743
1712
1746
1714
1749
1759
1727
1767
1729
1757
1776
1726
1776
1739
1759
1752
1719
1776
1742
1746
1745
1711
1754
1712
1731
1741
1711
1753
1713
1728
1719
1711
1793
1745
1775
1826
1820
1840
1744
1737
1717
1671
1700
1663
1679
1674
1643
1701
1663
1668
1675
1616
1628
1808
2532
2997
2157
1504
1420
1321
1385
1583
1675
1632
1665
1678
1663
1716
1683
1717
1732
1718
1770
1744
1776
1790
1781
1840
1805
1847
1854
1821
1841
1803
1821
1819
1776
1808
1754
1754
1744
1701
1729
1681
1701
1711
1683
1737
1687
1707
1719
1691
1744
1715
1743
1751
1723
1780
1739
1763
1774
1744
1781
1742
1766
1761
1731
1783
1738
1761
1780
1743
1791
1745
1770
1778
1792
1856
1819
1883
1923
1894
1909
1820
1824
1808
1766
1815
1773
1786
1794
1778
1827
1791
1819
1822
1728
1849
2326
3241
2877
1809
1606
1520
1456
1685
1806
1857
1823
1872
1903
1887
1929
1893
1936
1956
1939
1994
1959
2021
2035
2026
2090
2064
2101
2097
2059
2091
2036
2073
2062
2018
2046
1985
1988
1973
1961
1988
1933
1958
1962
1939
1982
1935
1966
1975
1964
1997
1962
2001
2004
1984
2031
1995
2027
2030
2006
2027
1984
2022
2021
2000
2033
1984
2015
2007
1981
2023
1983
2013
2023
2027
2091
2039
2128
2142
2082
2064
1995
2003
1979
1941
1983
1932
1960
1956
1936
1982
1945
1971
1925
1878
2202
2947
3440
2341
1710
1649
1511
1763
1913
1893
1936
1911
1946
1948
1937
1984
1953
1990
1991
1981
2032
2009
2064
2067
2063
2102
2073
2099
2090
2047
2085
2026
2043
2022
1984
2015
1951
1951
1926
1899
1923
1872
1903
1899
1876
1924
1879
1914
1906
1903
1927
1885
1915
1921
1906
1936
1901
1936
1929
1905
1925
1885
1913
1911
1898
1921
1878
1894
1893
1875
1910
1878
1907
1922
1942
1972
1927
2024
2016
1962
1941
1882
1882
1857
1840
1860
1811
1840
1835
1819
1872
1824
1839
1780
1745
2092
2880
3264
2156
1588
1507
1426
1702
1810
1793
1825
1786
1830
1841
1827
1857
1831
1882
1878
1872
1925
1899
1939
1942
1938
1991
1961
1968
1950
1935
1950
1897
1917
1899
1860
1862
1797
1813
1786
1765
1803
1755
1782
1776
1762
1808
1769
1797
1789
1785
1822
1792
1827
1824
1806
1843
1815
1849
1835
1826
1855
1813
1847
1834
1813
1840
1806
1843
1835
1822
1842
1799
1833
1830
1872
1895
1851
1948
1949
1915
1887
1824
1840
1809
1782
1808
1766
1798
1777
1766
1807
1770
1808
1749
1688
1941
2649
3219
2251
1588
1498
1371
1613
1743
1735
1758
1739
1778
1783
1781
1808
1776
1826
1809
1811
1856
1830
1876
1878
1876
1904
1887
1927
1891
1867
1872
1826
1850
1821
1787
1790
1728
1744
1719
1691
1722
1677
1695
1679
1666
1697
1669
1700
1680
1684
1723
1685
1728
1701
1709
1739
1680
1732
1712
1712
1744
1693
1719
1697
1697
1712
1665
1712
1695
1682
1721
1675
1747
1760
1744
1791
1805
1838
1776
1713
1731
1677
1711
1659
1647
1680
1647
1697
1679
1661
1691
1657
1639
1680
2157
2993
2596
1679
1409
1361
1319
1486
1674
1647
1648
1693
1665
1717
1717
1710
1740
1710
1759
1747
1759
1809
1791
1851
1829
1845
1873
1838
1870
1839
1827
1858
1794
1815
1788
1761
1773
1712
1731
1699
1697
1719
1693
1737
1711
1693
1730
1689
1739
1727
1728
1767
1739
1775
1754
1764
1794
1757
1789
1770
1776
1812
1759
1789
1777
1789
1808
1767
1855
1856
1852
1904
1911
1945
1893
1841
1846
1793
1836
1806
1792
1810
1783
1839
1809
1819
1861
1804
1797
1877
2432
3307
2773
1831
1594
1535
1507
1698
1877
1843
1855
1903
1887
1952
1915
1923
1968
1934
2000
1985
1998
2045
2016
2096
2069
2072
2105
2059
2100
2066
2066
2093
2031
2075
2017
1998
2011
1962
1999
1945
1937
1968
1934
1987
1954
1968
1995
1955
2005
1973
1998
2022
1978
2032
2000
2013
2038
2002
2047
2005
2003
2032
1978
2021
1987
2000
2015
1968
2009
1984
2001
2075
2038
2064
2089
2121
2116
2029
2038
1985
1965
1970
1920
1968
1931
1935
1965
1919
1969
1945
1919
1903
2067
2818
3504
2559
1794
1616
1535
1683
1881
1936
1887
1951
1937
1964
1995
1955
2002
1989
2016
2046
2011
2098
2064
2086
2139
2096
2150
2125
2114
2121
2079
2103
2064
2064
2064
1987
2023
1954
1951
1979
1933
1955
1922
1925
1954
1904
1950
1908
1936
1950
1900
1951
1919
1943
1966
1924
1968
1947
1949
1967
1915
1968
1915
1936
1947
1904
1959
1915
1926
1953
1904
1951
1935
1972
2000
1945
2047
2007
1999
1947
1893
1918
1856
1852
1872
1835
1872
1830
1850
1872
1851
1869
1779
1815
2192
3015
3162
2000
1573
1455
1445
1744
1785
1776
1795
1769
1842
1824
1814
1839
1826
1884
1863
1900
1920
1897
1979
1946
1983
2013
1977
2025
1990
1983
1987
1936
1959
1906
1906
1904
1837
1871
1820
1824
1840
1799
1840
1806
1823
1843
1803
1846
1806
1837
1840
1790
1856
1818
1834
1856
1809
1858
1839
1845
1863
1836
1865
1818
1850
1856
1813
1858
1816
1840
1843
1808
1875
1881
1908
1903
1913
1968
1901
1874
1872
1793
1824
1770
1790
1794
1753
1795
1763
1776
1781
1742
1731
1675
2000
2835
3029
2035
1488
1408
1366
1556
1725
1673
1685
1709
1691
1749
1712
1732
1744
1715
1790
1747
1791
1807
1762
1831
1808
1838
1851
1812
1857
1793
1805
1803
1746
1776
1714
1738
1715
1663
1686
1634
1659
1654
1615
1671
1621
1649
1662
1630
1681
1633
1664
1665
1648
1710
1650
1681
1692
1663
1706
1655
1695
1682
1648
1691
1648
1674
1696
1653
1703
1663
1712
1741
1712
1775
1799
1826
1782
1711
1739
1653
1677
1665
1628
1674
1633
1651
1666
1630
1680
1650
1623
1642
1998
2863
2736
1819
1415
1370
1301
1403
1631
1665
1627
1689
1665
1697
1711
1681
1758
1719
1766
1776
1755
1813
1782
1843
1872
1846
1900
1839
1872
1855
1817
1870
1808
1818
1808
1757
1792
1730
1745
1740
1703
1747
1695
1743
1729
1712
1759
1718
1751
1755
1746
1809
1762
1783
1792
1775
1827
1784
1811
1808
1798
1847
1806
1830
1818
1786
1849
1812
1850
1840
1855
1938
1889
1948
1991
1970
1980
1878
1906
1887
1840
1886
1835
1878
1872
1851
1905
1856
1902
1904
1826
1936
2363
3312
3033
1951
1698
1605
1567
1776
1893
1939
1906
1955
1970
1968
2028
1985
2015
2031
2015
2081
2046
2095
2097
2111
2167
2143
2171
2163
2119
2171
2115
2151
2129
2095
2123
2055
2075
2042
2001
2035
1982
2013
2011
1990
2027
1980
2025
2027
2000
2043
2005
2037
2034
2020
2066
2023
2063
2042
2022
2069
2025
2057
2027
2001
2059
1995
2032
2023
1998
2037
1999
2023
2010
1990
2061
2055
2091
2075
2112
2149
2074
2061
2016
1971
2001
1933
1965
1958
1927
1969
1922
1953
1946
1935
1915
1879
2298
3183
3270
2179
1669
1586
1572
1806
1933
1893
1925
1927
1920
1970
1930
1968
1966
1966
2006
1973
2027
2018
2021
2079
2054
2096
2078
2047
2086
2030
2042
2021
2000
2025
1949
1968
1941
1898
1914
1856
1889
1863
1853
1893
1839
1862
1856
1842
1872
1835
1874
1871
1857
1900
1858
1883
1872
1860
1897
1847
1886
1877
1861
1884
1844
1875
1855
1850
1875
1823
1868
1857
1841
1878
1821
1872
1903
1907
1934
1926
1994
1950
1893
1888
1826
1835
1804
1781
1814
1766
1805
1787
1783
1809
1777
1795
1699
1823
2487
3249
2559
1691
1483
1389
1525
1750
1750
1740
1779
1746
1804
1779
1789
1823
1800
1850
1841
1840
1899
1861
1919
1911
1909
1954
1918
1947
1919
1904
1918
1870
1891
1845
1815
1840
1776
1793
1765
1747
1776
1739
1780
1756
1755
1785
1744
1785
1780
1776
1808
1777
1824
1808
1803
1847
1790
1833
1810
1805
1829
1798
1837
1808
1795
1815
1787
1833
1799
1795
1813
1770
1808
1788
1787
1808
1787
1855
1830
1813
1909
1879
1892
1810
1786
1787
1714
1744
1722
1711
1743
1689
1726
1712
1712
1739
1637
1648
1883
2655
3029
2068
1519
1429
1305
1472
1614
1688
1639
1646
1682
1662
1712
1690
1701
1723
1701
1751
1738
1747
1793
1761
1815
1800
1808
1839
1792
1826
1785
1786
1798
1747
1770
1717
1706
1714
1663
1691
1652
1655
1678
1632
1679
1654
1662
1681
1649
1709
1673
1667
1704
1675
1722
1683
1680
1710
1681
1728
1689
1689
1715
1680
1714
1686
1699
1732
1668
1722
1690
1713
1760
1755
1800
1758
1832
1863
1807
1791
1726
1727
1744
1680
1715
1686
1701
1730
1689
1738
1712
1719
1682
1635
1985
2735
2970
2082
1463
1507
1347
1455
1685
1699
1745
1718
1745
1795
1760
1808
1774
1793
1839
1808
1870
1859
1873
1906
1881
1949
1936
1950
1943
1895
1927
1895
1903
1914
1856
1891
1838
1840
1834
1783
1840
1795
1799
1834
1803
1856
1826
1843
1866
1845
1904
1862
1872
1907
1859
1919
1898
1913
1929
1885
1936
1898
1915
1936
1903
1952
1911
1936
1955
1918
1969
1939
1961
1986
1995
2083
2043
2095
2128
2068
2081
2010
2000
2000
1959
1997
1961
1970
1979
1933
2001
1968
1990
1979
1899
2128
2771
3556
2679
1797
1757
1586
1680
1909
1936
1970
1937
1984
2007
1985
2046
2006
2027
2063
2032
2094
2064
2086
2123
2096
2151
2128
2139
2141
2078
2119
2081
2075
2085
2026
2065
1991
1990
1994
1938
1968
1932
1942
1952
1910
1957
1915
1936
1943
1910
1957
1933
1957
1967
1936
1982
1945
1967
1965
1919
1958
1927
1948
1947
1919
1962
1913
1919
1939
1904
1934
1900
1916
1931
1902
1950
1883
1904
1936
1947
1997
1943
2013
2047
1984
1984
1904
1897
1901
1841
1878
1841
1860
1870
1836
1872
1855
1872
1819
1771
2114
2863
3285
2256
1634
1570
1424
1654
1809
1783
1842
1795
1834
1850
1837
1891
1853
1899
1906
1881
1941
1919
1957
1974
1951
2009
1974
2003
2006
1970
2005
1956
1965
1962
1908
1936
1891
1890
1872
1833
1877
1826
1846
1849
1818
1873
1836
1861
1867
1832
1885
1846
1876
1886
1859
1906
1856
1895
1897
1872
1910
1866
1887
1890
1864
1913
1867
1895
1902
1869
1919
1873
1881
1872
1862
1906
1855
1893
1909
1917
1968
1921
2017
2000
1940
1949
1881
1887
1869
1827
1858
1809
1835
1855
1822
1854
1817
1847
1785
1756
2143
2947
3197
2100
1586
1507
1463
1729
1813
1776
1834
1797
1838
1845
1831
1890
1849
1883
1892
1882
1931
1906
1939
1951
1948
2001
1964
1991
1981
1937
1978
1922
1938
1917
1872
1901
1834
1842
1839
1799
1837
1786
1811
1809
1776
1826
1766
1802
1806
1791
1844
1805
1839
1835
1827
1865
1815
1851
1845
1827
1866
1827
1858
1847
1833
1872
1826
1869
1858
1833
1872
1831
1859
1845
1822
1871
1830
1863
1882
1904
1939
1891
1984
1979
1935
1918
1858
1855
1833
1798
1836
1791
1817
1791
1759
1808
1773
1780
1723
1731
2182
3010
2929
1891
1529
1459
1392
1648
1723
1693
1738
1705
1743
1741
1727
1781
1735
1777
1790
1775
1811
1791
1830
1834
1822
1864
1814
1846
1837
1807
1843
1789
1802
1785
1744
1751
1700
1712
1688
1654
1680
1631
1665
1647
1626
1686
1634
1662
1674
1664
1694
1647
1680
1686
1679
1715
1665
1695
1679
1675
1719
1658
1689
1680
1662
1710
1665
1712
1687
1671
1718
1671
1691
1692
1693
1771
1742
1759
1789
1813
1840
1751
1748
1705
1670
1712
1650
1685
1667
1645
1690
1646
1693
1678
1648
1608
1723
2411
3030
2331
1554
1418
1379
1342
1553
1690
1637
1702
1698
1709
1760
1716
1757
1756
1745
1803
1759
1827
1838
1845
1882
1841
1899
1889
1874
1901
1835
1872
1856
1828
1867
1790
1808
1773
1749
1783
1723
1761
1755
1734
1776
1728
1770
1769
1763
1798
1751
1808
1801
1801
1822
1772
1833
1815
1793
1840
1792
1826
1822
1808
1845
1806
1859
1834
1829
1866
1817
1871
1851
1853
1927
1901
1957
1965
2000
2030
1950
1954
1917
1886
1894
1851
1893
1872
1869
1902
1855
1920
1904
1874
1846
1911
2482
3365
2882
1919
1638
1626
1535
1741
1905
1872
1930
1927
1943
1986
1951
2000
1978
1995
2043
2014
2080
2078
2077
2128
2103
2155
2137
2121
2161
2112
2115
2096
2082
2111
2042
2064
2014
2011
2021
1959
2001
1974
1968
2015
1968
2018
1999
1986
2014
1979
2027
2000
1992
2022
1978
2035
2006
2005
2037
1983
2025
1984
1988
2017
1968
2003
1978
1968
2001
1961
2006
1966
1968
2001
1953
2013
2025
2021
2053
2064
2117
2061
2007
2010
1924
1953
1919
1905
1935
1893
1920
1902
1904
1936
1900
1904
1856
2163
2992
3248
2243
1648
1575
1516
1678
1873
1862
1863
1904
1875
1925
1902
1909
1945
1906
1971
1942
1954
2004
1970
2022
2017
2025
2053
2026
2069
2010
2009
2022
1968
2013
1962
1942
1943
1877
1911
1872
1849
1878
1840
1876
1854
1869
1899
1855
1909
1873
1889
1927
1872
1929
1909
1910
1942
1906
1939
1908
1930
1936
1895
1948
1910
1915
1947
1902
1936
1920
1915
1936
1904
1941
1907
1921
1980
1967
2001
1981
2030
2042
1959
1965
1917
1898
1908
1867
1891
1870
1877
1887
1851
1901
1859
1854
1814
1859
2467
3344
2768
1823
1568
1482
1571
1803
1842
1800
1858
1842
1847
1895
1840
1901
1885
1893
1929
1908
1946
1927
1957
1991
1952
2015
1984
1987
2001
1936
1970
1929
1922
1917
1867
1883
1816
1824
1823
1776
1808
1778
1793
1808
1778
1808
1781
1791
1811
1790
1823
1789
1820
1830
1791
1848
1822
1841
1855
1799
1861
1829
1821
1842
1811
1851
1834
1831
1846
1821
1871
1815
1841
1851
1808
1885
1889
1882
1911
1935
1968
1920
1887
1867
1803
1835
1787
1799
1806
1769
1808
1775
1783
1806
1754
1731
1742
2197
3088
2849
1854
1486
1408
1421
1616
1741
1702
1710
1727
1710
1765
1719
1731
1757
1724
1776
1765
1777
1806
1786
1852
1817
1837
1855
1815
1845
1795
1792
1795
1760
1780
1713
1713
1707
1658
1675
1629
1638
1647
1608
1648
1617
1626
1637
1614
1667
1623
1649
1661
1638
1679
1649
1655
1671
1657
1697
1655
1669
1687
1653
1699
1657
1670
1669
1643
1697
1674
1676
1686
1672
1737
1713
1730
1786
1786
1813
1736
1726
1712
1661
1691
1639
1659
1675
1641
1682
1648
1676
1694
1647
1635
1749
2391
3038
2367
1574
1407
1355
1342
1535
1693
1655
1685
1709
1697
1762
1721
1745
1770
1747
1799
1776
1815
1841
1821
1889
1856
1889
1904
1875
1904
1853
1870
1870
1837
1862
1805
1791
1778
1744
1781
1728
1747
1753
1723
1771
1728
1758
1763
1742
1795
1774
1791
1807
1791
1839
1802
1834
1840
1819
1856
1810
1838
1854
1818
1863
1829
1853
1855
1839
1881
1840
1872
1910
1910
1959
1957
2015
2000
1936
1938
1886
1902
1866
1833
1895
1849
1875
1887
1865
1916
1890
1904
1855
1984
2707
3378
2592
1751
1641
1584
1586
1844
1927
1903
1947
1920
1964
1966
1959
2023
1969
2007
2025
2010
2084
2041
2094
2112
2098
2146
2096
2137
2129
2096
2128
2071
2086
2062
2030
2054
1985
1991
1971
1945
1995
1946
1969
1978
1955
1995
1965
1979
1986
1958
2005
1971
2014
2001
1983
2030
1976
2013
2000
1992
2033
1986
2001
1987
1968
2013
1967
1987
1979
1957
2000
1967
2032
2059
2015
2095
2083
2097
2047
1973
1989
1931
1937
1926
1910
1941
1904
1909
1905
1901
1947
1899
1857
1985
2522
3475
2818
1867
1626
1490
1613
1805
1895
1876
1866
1923
1895
1929
1924
1915
1973
1937
1979
1981
1985
2036
2015
2064
2064
2047
2110
2047
2067
2055
2032
2062
1987
2001
1984
1962
1968
1908
1936
1907
1887
1923
1880
1914
1910
1895
1939
1898
1921
1914
1914
1951
1902
1941
1949
1935
1967
1927
1968
1949
1914
1955
1917
1946
1933
1910
1949
1909
1939
1924
1914
1941
1891
1921
1914
1937
1997
1936
2016
2029
1998
1987
1904
1919
1875
1845
1872
1833
1854
1838
1830
1866
1821
1856
1816
1766
1959
2559
3385
2518
1686
1561
1408
1626
1790
1789
1809
1790
1838
1833
1814
1871
1823
1872
1875
1878
1924
1903
1938
1943
1946
1986
1957
2000
1981
1958
1968
1917
1943
1920
1887
1901
1839
1850
1811
1794
1819
1776
1808
1787
1783
1807
1776
1821
1797
1792
1827
1787
1839
1829
1811
1853
1812
1855
1830
1829
1866
1817
1840
1821
1807
1838
1790
1823
1801
1792
1823
1781
1811
1781
1775
1817
1814
1859
1825
1873
1920
1855
1831
1774
1756
1777
1711
1722
1712
1701
1719
1666
1727
1698
1683
1675
1603
1853
2528
2998
2192
1425
1397
1264
1381
1617
1602
1632
1634
1644
1671
1635
1678
1667
1665
1702
1675
1725
1717
1728
1773
1750
1808
1797
1793
1812
1769
1792
1750
1744
1755
1686
1724
1675
1655
1669
1617
1646
1615
1600
1633
1600
1649
1625
1616
1664
1621
1662
1657
1664
1695
1655
1702
1680
1680
1705
1664
1711
1684
1697
1721
1680
1721
1696
1680
1703
1666
1715
1686
1724
1779
1734
1821
1831
1824
1787
1683
1726
1675
1662
1692
1627
1662
1633
1637
1661
1616
1672
1619
1571
1775
2363
3052
2356
1491
1403
1299
1329
1517
1649
1686
1650
1712
1697
1714
1750
1730
1771
1769
1789
1823
1792
1856
1846
1870
1911
1876
1945
1902
1900
1918
1867
1901
1867
1863
1861
1813
1839
1794
1792
1811
1775
1812
1792
1805
1843
1808
1856
1822
1836
1875
1843
1899
1869
1887
1930
1889
1933
1897
1903
1938
1893
1946
1925
1933
1963
1922
1965
1939
1950
1984
1952
2015
2023
2039
2097
2093
2128
2059
2018
2029
1968
2001
1968
1968
1985
1959
1998
1966
1987
2010
1958
1952
2021
2591
3583
2969
1975
1702
1632
1651
1855
2005
1968
1981
2014
1989
2034
2003
2026
2058
2026
2087
2071
2096
2128
2102
2159
2134
2134
2171
2128
2160
2122
2125
2141
2091
2115
2055
2032
2025
1970
2003
1949
1959
1968
1925
1984
1950
1954
1968
1922
1979
1937
1969
1994
1955
2001
1984
1995
2003
1958
2009
1973
1983
1995
1948
1998
1969
1978
1987
1968
1997
1939
1964
1986
1948
2005
2019
2047
2058
2064
2110
2035
2019
2000
1923
1964
1918
1921
1925
1889
1936
1904
1910
1923
1895
1894
1833
2142
2943
3424
2374
1685
1557
1520
1714
1902
1869
1875
1894
1875
1936
1915
1932
1953
1930
1984
1951
1979
1998
1984
2038
2015
2037
2059
2021
2065
2000
2001
2018
1961
1999
1927
1919
1902
1853
1882
1835
1840
1845
1808
1857
1822
1838
1854
1817
1857
1825
1840
1849
1818
1860
1835
1858
1858
1836
1872
1834
1854
1863
1824
1871
1829
1847
1844
1821
1867
1824
1842
1847
1816
1855
1817
1871
1905
1862
1950
1955
1946
1911
1843
1856
1799
1807
1791
1757
1794
1751
1776
1792
1767
1811
1762
1715
1829
2382
3260
2608
1695
1491
1351
1558
1728
1767
1761
1754
1808
1781
1788
1794
1789
1845
1819
1853
1865
1843
1920
1901
1933
1952
1926
1963
1926
1933
1923
1891
1918
1882
1890
1857
1803
1833
1775
1779
1775
1744
1771
1733
1758
1762
1733
1780
1754
1759
1758
1739
1782
1751
1770
1770
1745
1786
1744
1772
1777
1743
1776
1741
1767
1754
1717
1753
1719
1746
1737
1699
1749
1707
1726
1744
1744
1779
1750
1840
1829
1761
1754
1701
1705
1671
1633
1680
1637
1653
1651
1631
1667
1639
1651
1600
1616
2099
2861
2677
1711
1356
1356
1220
1461
1596
1582
1617
1604
1642
1648
1631
1682
1650
1673
1686
1680
1744
1712
1744
1765
1747
1807
1786
1808
1802
1769
1802
1748
1763
1757
1714
1733
1664
1682
1669
1639
1665
1627
1655
1659
1623
1675
1625
1654
1664
1655
1712
1663
1694
1693
1680
1742
1679
1708
1713
1697
1737
1691
1713
1708
1680
1727
1689
1718
1714
1697
1746
1725
1787
1775
1799
1882
1826
1794
1765
1722
1742
1680
1712
1723
1685
1715
1670
1719
1738
1717
1749
1647
1788
2346
3126
2701
1692
1502
1453
1363
1633
1731
1769
1766
1769
1841
1789
1840
1842
1842
1904
1872
1919
1933
1918
1972
1949
2003
2005
2000
2056
2001
2013
2000
1984
2011
1955
1993
1971
1936
1968
1918
1950
1941
1918
1955
1911
1963
1959
1941
2003
1949
1985
1995
1983
2035
1968
2023
2032
2000
2042
1997
2031
2023
2015
2064
1997
2041
2034
2019
2053
2011
2045
2054
2071
2128
2094
2182
2169
2117
2102
2032
2061
2013
1977
2018
1984
1999
1985
1968
2007
1974
2003
1938
1936
2370
3211
3312
2166
1687
1672
1553
1815
1950
1941
1977
1939
1985
1987
1974
2019
1984
2037
2033
2032
2086
2038
2098
2103
2094
2143
2097
2128
2107
2082
2101
2054
2077
2036
2007
2032
1951
1971
1940
1920
1947
1898
1936
1909
1910
1943
1895
1929
1918
1906
1951
1904
1947
1941
1929
1957
1915
1972
1947
1919
1958
1920
1957
1926
1917
1941
1891
1934
1923
1914
1941
1886
1931
1920
1905
1968
1962
2006
1984
2018
2079
2012
1995
1942
1911
1924
1860
1900
1885
1855
1889
1845
1899
1871
1872
1864
1776
2031
2741
3401
2477
1695
1584
1451
1637
1849
1815
1850
1829
1847
1903
1858
1907
1894
1899
1935
1909
1968
1953
1964
2005
1968
2027
2010
2001
2017
1959
1994
1963
1936
1959
1887
1915
1873
1854
1883
1819
1860
1841
1823
1845
1793
1841
1803
1808
1847
1803
1853
1827
1831
1873
1823
1862
1841
1846
1859
1815
1869
1835
1835
1872
1812
1842
1835
1826
1855
1823
1847
1826
1836
1852
1807
1857
1857
1889
1925
1894
1974
1959
1911
1894
1836
1844
1806
1804
1811
1772
1827
1781
1792
1833
1776
1809
1728
1747
2224
3089
2961
1885
1535
1439
1447
1735
1776
1760
1809
1770
1817
1814
1811
1845
1824
1866
1856
1874
1905
1889
1953
1936
1947
1989
1930
1971
1949
1931
1940
1896
1923
1883
1870
1861
1811
1831
1787
1775
1804
1744
1777
1759
1744
1771
1744
1783
1744
1746
1776
1739
1781
1745
1754
1789
1730
1775
1758
1733
1766
1737
1755
1727
1723
1736
1700
1745
1696
1698
1728
1680
1721
1695
1699
1731
1717
1754
1766
1805
1812
1727
1732
1679
1674
1690
1616
1648
1631
1631
1663
1614
1658
1648
1638
1591
1695
2351
2966
2359
1535
1358
1313
1296
1509
1616
1590
1634
1632
1646
1661
1631
1702
1683
1682
1734
1705
1763
1758
1772
1813
1783
1835
1811
1813
1831
1783
1834
1772
1775
1791
1730
1761
1709
1680
1703
1664
1701
1667
1680
1709
1654
1714
1681
1697
1734
1689
1737
1712
1730
1758
1707
1762
1741
1739
1761
1712
1773
1731
1743
1760
1714
1766
1732
1738
1745
1712
1770
1757
1803
1827
1793
1891
1856
1841
1818
1738
1775
1739
1744
1744
1695
1755
1722
1743
1773
1741
1797
1705
1743
2118
2902
3037
2013
1535
1535
1391
1594
1748
1808
1824
1807
1875
1853
1893
1913
1871
1936
1917
1946
1983
1959
2031
2011
2039
2087
2055
2096
2045
2064
2071
2033
2094
2014
2038
2044
1975
1998
1962
1968
1984
1938
1995
1969
1971
1994
1966
2015
1991
2018
2039
2003
2065
2032
2047
2087
2041
2087
2032
2047
2068
2026
2077
2035
2047
2064
2022
2081
2033
2039
2047
2009
2066
2031
2039
2077
2082
2128
2111
2166
2187
2112
2095
2027
2030
2032
1974
2026
1972
1979
1989
1953
2000
1962
1979
1942
1927
2365
3205
3319
2190
1698
1654
1561
1805
1936
1904
1936
1921
1946
1970
1936
1996
1965
1991
2011
1994
2064
2019
2071
2097
2075
2117
2075
2095
2096
2041
2096
2042
2054
2054
2000
2025
1949
1953
1963
1919
1955
1910
1919
1920
1904
1963
1920
1947
1957
1922
1968
1926
1962
1983
1927
1968
1937
1965
1971
1936
1984
1938
1961
1968
1927
1961
1923
1936
1954
1904
1942
1922
1935
1936
1904
2000
1979
1979
2005
2029
2059
1978
1953
1953
1888
1912
1854
1872
1882
1846
1872
1830
1862
1872
1820
1799
1809
2290
3247
2949
1923
1568
1456
1526
1717
1830
1783
1810
1831
1802
1867
1822
1851
1859
1833
1895
1859
1900
1936
1899
1956
1933
1965
1971
1931
1969
1926
1925
1921
1873
1902
1865
1845
1842
1791
1816
1769
1780
1783
1749
1795
1757
1776
1781
1760
1808
1782
1793
1801
1791
1819
1783
1811
1837
1798
1824
1796
1813
1809
1776
1840
1802
1815
1809
1788
1842
1777
1797
1808
1769
1809
1791
1815
1859
1844
1873
1861
1922
1936
1873
1857
1805
1808
1783
1754
1796
1744
1776
1775
1744
1792
1759
1758
1692
1746
2329
3139
2683
1739
1482
1389
1434
1678
1712
1679
1739
1700
1742
1759
1723
1778
1733
1777
1787
1754
1871
1875
1910
1936
1891
1943
1910
1926
1927
1883
1906
1842
1861
1833
1789
1796
1735
1761
1733
1678
1697
1647
1696
1683
1664
1714
1648
1698
1693
1664
1697
1669
1712
1705
1676
1709
1674
1711
1682
1659
1707
1645
1697
1675
1662
1700
1648
1681
1698
1647
1694
1654
1697
1755
1718
1766
1773
1850
1807
1699
1722
1654
1682
1662
1646
1679
1635
1663
1648
1635
1686
1633
1616
1629
1919
2752
2842
1945
1424
1390
1303
1370
1606
1664
1631
1695
1665
1712
1725
1684
1744
1723
1759
1764
1748
1829
1778
1829
1853
1838
1895
1840
1855
1843
1824
1855
1799
1828
1810
1774
1789
1733
1743
1716
1699
1728
1679
1730
1744
1709
1750
1703
1742
1744
1716
1781
1740
1759
1760
1759
1814
1774
1787
1795
1770
1840
1791
1829
1818
1793
1841
1808
1842
1835
1815
1898
1887
1919
1935
1980
2032
1950
1943
1918
1869
1907
1843
1879
1879
1851
1905
1861
1904
1904
1875
1882
1840
2209
3055
3216
2233
1664
1671
1534
1661
1922
1889
1936
1953
1937
1999
1978
2001
2013
1997
2059
2013
2081
2078
2074
2126
2096
2154
2142
2149
2161
2096
2143
2111
2086
2126
2046
2059
2042
1998
2034
1984
1995
1971
1968
2012
1949
1984
1983
1968
2032
1972
2015
2018
1985
2035
2000
2017
2016
2000
2047
1993
2022
2014
1994
2039
1982
2019
1998
1968
2023
1990
2017
1999
1990
2087
2062
2105
2097
2113
2150
2054
2064
2029
1993
2000
1936
1985
1959
1942
1981
1951
1982
1968
1936
1895
1987
2631
3549
2847
1899
1634
1569
1667
1861
1951
1893
1934
1952
1939
1983
1958
1985
1984
1971
2039
2003
2046
2061
2053
2096
2063
2097
2079
2045
2081
2042
2064
2014
1989
2026
1959
1968
1942
1897
1919
1891
1923
1885
1861
1901
1856
1882
1869
1853
1905
1855
1893
1871
1865
1924
1872
1902
1906
1857
1906
1843
1887
1877
1863
1904
1849
1879
1869
1847
1887
1855
1879
1859
1867
1923
1908
1935
1963
1958
1974
1869
1866
1827
1799
1803
1745
1801
1778
1767
1803
1761
1797
1785
1739
1718
1898
2651
3281
2266
1619
1441
1409
1612
1735
1770
1725
1760
1782
1776
1835
1775
1827
1837
1835
1895
1862
1887
1889
1903
1951
1931
1975
1947
1934
1959
1904
1930
1904
1875
1882
1830
1847
1814
1783
1809
1756
1786
1766
1751
1797
1747
1801
1783
1783
1813
1777
1821
1807
1791
1820
1794
1828
1820
1809
1850
1795
1830
1815
1807
1840
1805
1839
1824
1807
1850
1811
1850
1838
1819
1869
1865
1904
1887
1947
1983
1911
1889
1845
1808
1822
1776
1812
1785
1769
1808
1761
1801
1787
1774
1757
1686
2022
2832
3056
2042
1509
1465
1392
1590
1744
1702
1728
1711
1722
1774
1723
1759
1745
1735
1792
1759
1806
1790
1807
1850
1813
1866
1856
1851
1873
1815
1831
1797
1794
1816
1751
1761
1721
1689
1707
1649
1680
1655
1652
1674
1616
1664
1652
1648
1687
1631
1684
1669
1672
1694
1650
1707
1676
1664
1701
1669
1710
1680
1674
1717
1658
1694
1674
1664
1705
1651
1712
1727
1738
1760
1744
1838
1802
1744
1744
1667
1680
1652
1644
1687
1634
1678
1657
1655
1691
1654
1674
1586
1717
2358
2990
2437
1559
1407
1391
1295
1535
1648
1654
1694
1658
1723
1702
1707
1747
1712
1770
1760
1759
1811
1779
1842
1840
1840
1890
1841
1890
1855
1846
1856
1802
1845
1809
1789
1811
1769
1776
1730
1725
1758
1715
1763
1743
1744
1778
1734
1791
1769
1778
1821
1763
1810
1808
1819
1863
1808
1853
1821
1814
1862
1820
1872
1840
1840
1877
1829
1886
1871
1875
1948
1903
1982
2013
2000
1997
1895
1929
1890
1872
1897
1854
1891
1871
1856
1904
1871
1923
1885
1838
1947
2390
3344
2961
1919
1671
1579
1584
1771
1904
1955
1904
1968
1952
1968
2022
1984
2044
2010
2015
2075
2043
2101
2082
2097
2148
2124
2161
2126
2119
2137
2081
2125
2083
2059
2078
2013
2035
2000
1986
1991
1952
1991
1962
1962
1985
1938
1984
1969
1975
2001
1962
2017
1994
2000
2023
1979
2023
1998
1994
2015
1969
2017
1984
1994
2010
1965
2011
1987
1991
2007
1963
2015
2023
2055
2077
2063
2130
2097
2060
2030
1966
1999
1938
1933
1961
1904
1941
1917
1930
1957
1917
1936
1840
2000
2687
3474
2743
1792
1620
1535
1658
1902
1901
1892
1936
1919
1982
1946
1951
1988
1949
2015
2003
2004
2039
2015
2083
2065
2091
2117
2066
2115
2064
2059
2070
2013
2034
1987
1976
1984
1926
1951
1895
1891
1911
1855
1901
1870
1872
1892
1849
1891
1872
1879
1903
1861
1906
1877
1887
1913
1863
1907
1881
1886
1911
1854
1904
1882
1871
1886
1867
1899
1865
1875
1894
1838
1911
1919
1932
1936
1941
2014
1958
1919
1909
1847
1886
1829
1830
1846
1792
1839
1813
1813
1842
1801
1814
1737
1950
2729
3277
2327
1606
1472
1447
1616
1811
1777
1786
1818
1795
1849
1823
1831
1851
1823
1883
1863
1875
1911
1893
1947
1932
1948
1969
1940
1968
1922
1923
1936
1879
1909
1861
1841
1847
1790
1812
1764
1759
1783
1743
1791
1753
1747
1776
1749
1797
1776
1785
1817
1776
1808
1783
1785
1821
1782
1827
1798
1811
1835
1794
1823
1792
1798
1822
1775
1818
1793
1808
1826
1783
1839
1808
1843
1872
1824
1906
1916
1913
1884
1807
1823
1779
1769
1766
1723
1776
1735
1731
1746
1711
1764
1711
1654
1795
2357
3152
2459
1600
1456
1302
1439
1618
1681
1690
1670
1729
1687
1712
1733
1679
1745
1742
1750
1770
1743
1802
1790
1815
1838
1803
1872
1819
1818
1840
1791
1829
1791
1765
1766
1713
1727
1671
1680
1680
1633
1665
1630
1647
1678
1618
1680
1647
1665
1695
1663
1694
1668
1690
1711
1670
1731
1673
1694
1712
1654
1716
1685
1683
1712
1674
1712
1680
1711
1715
1680
1751
1744
1765
1806
1815
1864
1792
1743
1749
1697
1728
1676
1698
1706
1664
1714
1677
1702
1727
1679
1669
1674
2083
2923
2801
1888
1441
1451
1339
1435
1700
1686
1688
1726
1706
1763
1735
1761
1791
1765
1803
1771
1818
1849
1838
1897
1858
1878
1915
1871
1906
1861
1866
1883
1838
1863
1813
1825
1808
1749
1803
1742
1747
1773
1742
1798
1776
1786
1806
1767
1826
1798
1818
1829
1805
1871
1833
1856
1878
1827
1885
1863
1877
1874
1840
1893
1858
1892
1901
1871
1920
1883
1923
1978
1957
2005
2000
2068
2081
1998
1989
1936
1937
1920
1889
1943
1893
1904
1931
1903
1955
1920
1939
1889
1931
2496
3377
3003
1968
1664
1665
1578
1829
1963
1927
1986
1943
1994
2029
1989
2028
2004
2036
2061
2041
2109
2082
2114
2139
2110
2163
2133
2158
2160
2113
2151
2094
2110
2096
2023
2066
2006
2005
2007
1959
1999
1947
1964
1968
1939
1979
1929
1952
1969
1936
2001
1955
1979
2000
1955
2006
1968
1994
1996
1954
2010
1958
1979
1979
1950
1982
1939
1968
1973
1936
1975
1941
1959
2003
2009
2047
2023
2092
2092
2012
2020
1947
1953
1940
1900
1942
1903
1920
1923
1895
1945
1911
1936
1872
1918
2468
3364
2990
1923
1615
1535
1567
1834
1905
1865
1917
1886
1916
1933
1930
1968
1936
1975
1998
1975
2031
2005
2045
2064
2056
2124
2071
2096
2086
2053
2083
2016
2032
2019
1978
2000
1942
1936
1925
1895
1937
1882
1911
1918
1887
1939
1892
1927
1933
1902
1958
1909
1935
1941
1917
1952
1911
1934
1933
1904
1947
1889
1927
1923
1894
1935
1889
1915
1913
1882
1931
1891
1902
1904
1875
1939
1921
1966
1954
1971
2034
1968
1949
1905
1859
1879
1831
1849
1843
1814
1843
1806
1841
1852
1820
1838
1734
1930
2624
3334
2502
1654
1520
1418
1595
1808
1773
1799
1808
1795
1842
1811
1845
1826
1814
1875
1845
1893
1905
1891
1941
1915
1957
1955
1936
1969
1905
1929
1926
1891
1917
1858
1872
1851
1808
1823
1758
1789
1773
1729
1776
1734
1769
1767
1751
1798
1759
1790
1789
1776
1809
1763
1803
1799
1776
1826
1776
1815
1815
1795
1844
1778
1808
1812
1799
1840
1789
1817
1814
1795
1833
1782
1817
1823
1823
1890
1828
1902
1939
1900
1907
1822
1837
1808
1770
1805
1757
1773
1762
1750
1792
1761
1788
1764
1675
1811
2344
3206
2603
1658
1520
1344
1477
1693
1703
1733
1700
1741
1744
1730
1773
1729
1776
1782
1774
1813
1786
1831
1835
1841
1874
1835
1872
1866
1838
1863
1794
1820
1799
1762
1765
1695
1719
1697
1650
1680
1616
1649
1643
1620
1651
1610
1647
1639
1619
1666
1627
1664
1662
1641
1691
1631
1680
1677
1649
1678
1627
1666
1664
1634
1664
1613
1655
1662
1639
1675
1621
1670
1651
1646
1713
1686
1718
1716
1770
1811
1727
1712
1680
1633
1664
1595
1637
1627
1615
1651
1610
1654
1638
1629
1605
1606
2110
2907
2666
1733
1373
1397
1264
1429
1647
1617
1665
1678
1655
1702
1675
1726
1725
1713
1773
1735
1791
1803
1793
1840
1814
1872
1859
1849
1872
1823
1862
1837
1803
1831
1777
1806
1766
1739
1771
1702
1728
1712
1709
1751
1707
1735
1730
1719
1757
1712
1765
1751
1739
1789
1754
1792
1776
1769
1809
1761
1802
1779
1773
1808
1769
1808
1806
1797
1835
1788
1834
1818
1840
1911
1882
1920
1968
1967
1968
1874
1902
1853
1840
1856
1818
1858
1830
1835
1878
1842
1884
1866
1808
1874
2242
3183
3140
2064
1681
1607
1527
1696
1853
1920
1871
1935
1936
1941
1984
1940
1993
1985
1985
2032
2000
2067
2075
2071
2125
2083
2128
2112
2101
2133
2075
2117
2087
2063
2098
2021
2061
2021
2000
2010
1962
2000
1981
1972
2006
1959
2009
1991
1999
2036
1992
2037
2000
2000
2034
2000
2043
2023
2019
2033
1989
2034
2013
2005
2039
1994
2035
2002
1999
2031
1967
2014
1991
2027
2098
2053
2113
2128
2119
2122
2009
2032
1995
1968
1991
1947
1989
1955
1957
2000
1957
2005
1959
1893
2039
2559
3554
2921
1904
1697
1535
1667
1861
1920
1939
1911
1962
1952
1950
1990
1954
1999
1987
1991
2035
1997
2047
2042
2068
2103
2062
2115
2080
2064
2080
2015
2053
2025
2000
2011
1951
1979
1920
1913
1930
1883
1920
1891
1890
1918
1870
1913
1895
1905
1949
1893
1933
1911
1918
1943
1888
1937
1911
1911
1935
1881
1929
1898
1877
1905
1871
1904
1877
1874
1904
1853
1903
1874
1872
1926
1915
1950
1928
1978
2000
1933
1934
1872
1857
1869
1801
1842
1820
1809
1839
1791
1834
1808
1805
1776
1731
2147
2985
3119
2035
1535
1474
1437
1691
1810
1757
1807
1776
1799
1837
1795
1842
1813
1832
1872
1854
1906
1893
1903
1938
1913
1979
1952
1966
1966
1909
1943
1911
1904
1918
1851
1867
1817
1806
1819
1774
1808
1771
1763
1797
1755
1808
1775
1766
1805
1774
1815
1792
1801
1839
1797
1842
1817
1818
1840
1797
1846
1815
1822
1840
1798
1843
1802
1815
1841
1782
1840
1809
1814
1830
1795
1845
1844
1885
1900
1881
1985
1939
1906
1874
1829
1853
1806
1805
1810
1767
1813
1784
1803
1823
1789
1819
1712
1808
2390
3204
2710
1739
1535
1430
1490
1764
1777
1774
1800
1777
1836
1819
1828
1850
1825
1878
1845
1859
1904
1882
1947
1931
1949
1968
1920
1958
1926
1915
1915
1872
1895
1843
1831
1840
1779
1798
1753
1753
1759
1713
1760
1730
1739
1750
1715
1759
1728
1737
1753
1727
1777
1745
1742
1759
1731
1786
1746
1733
1747
1712
1748
1713
1730
1740
1705
1744
1694
1707
1729
1696
1746
1746
1757
1771
1791
1840
1777
1739
1730
1657
1684
1635
1647
1648
1605
1669
1627
1648
1661
1620
1607
1610
2069
2896
2621
1730
1392
1374
1279
1433
1648
1606
1619
1648
1635
1680
1648
1683
1707
1666
1731
1712
1744
1758
1733
1799
1779
1820
1840
1799
1843
1789
1802
1818
1774
1795
1727
1737
1727
1674
1711
1675
1680
1702
1662
1711
1667
1680
1693
1662
1726
1687
1715
1728
1698
1757
1711
1740
1760
1712
1765
1711
1728
1737
1711
1761
1723
1744
1758
1718
1777
1749
1788
1808
1786
1869
1871
1872
1841
1774
1782
1746
1756
1774
1727
1774
1747
1773
1772
1750
1808
1737
1709
1921
2559
3290
2478
1647
1573
1442
1507
1698
1827
1826
1811
1881
1856
1876
1888
1872
1947
1907
1939
1973
1964
2011
1981
2015
2058
2029
2085
2032
2057
2057
2016
2062
2000
2015
2007
1966
1993
1921
1943
1949
1916
1969
1921
1952
1953
1933
1984
1942
1983
1990
1950
2015
1977
2007
2010
1977
2039
1990
2011
2009
1973
2030
1973
2005
2023
1989
2033
2000
2015
2032
2033
2109
2045
2111
2141
2098
2085
2005
2009
2005
1951
1975
1934
1968
1960
1922
1984
1936
1965
1935
1871
2180
2896
3502
2464
1734
1689
1518
1726
1915
1905
1951
1917
1954
1970
1946
1989
1955
2000
2001
1987
2057
2020
2066
2079
2063
2125
2082
2112
2087
2035
2089
2023
2037
2022
1971
2003
1937
1946
1920
1874
1917
1859
1887
1899
1863
1906
1873
1904
1901
1886
1941
1883
1914
1935
1905
1949
1901
1928
1931
1906
1950
1902
1922
1923
1882
1935
1879
1914
1921
1885
1921
1885
1920
1947
1958
2003
1968
2046
2037
1997
1973
1906
1926
1898
1857
1898
1846
1876
1873
1842
1895
1854
1879
1825
1823
2255
3088
3141
2031
1605
1526
1489
1766
1845
1826
1876
1833
1875
1901
1875
1920
1896
1937
1942
1925
1984
1955
1994
2000
2000
2067
2018
2055
2026
1991
2027
1978
2001
1965
1919
1942
1877
1894
1875
1850
1882
1822
1858
1841
1821
1868
1825
1847
1841
1831
1885
1842
1872
1869
1845
1886
1855
1878
1876
1856
1904
1854
1874
1863
1843
1885
1849
1872
1867
1850
1872
1837
1872
1888
1901
1943
1889
1979
1974
1938
1935
1853
1870
1838
1805
1847
1807
1815
1808
1791
1834
1797
1824
1776
1725
2018
2759
3280
2256
1638
1573
1446
1713
1828
1796
1846
1814
1856
1865
1856
1904
1861
1904
1911
1911
1955
1936
1971
1971
1970
2011
1973
2000
1983
1958
1983
1920
1931
1909
1875
1895
1838
1845
1810
1781
1811
1747
1771
1747
1727
1761
1712
1759
1746
1728
1763
1723
1774
1754
1740
1776
1733
1773
1743
1728
1765
1703
1729
1729
1708
1746
1695
1722
1712
1700
1733
1670
1698
1697
1707
1777
1698
1776
1823
1794
1775
1693
1703
1662
1635
1663
1617
1649
1627
1616
1654
1613
1654
1635
1564
1706
2219
2990
2479
1555
1402
1291
1300
1488
1593
1635
1583
1645
1648
1644
1686
1650
1701
1690
1693
1742
1712
1777
1765
1773
1826
1790
1840
1835
1789
1826
1786
1806
1787
1762
1765
1696
1730
1687
1659
1696
1625
1680
1677
1643
1679
1648
1690
1668
1686
1712
1661
1717
1700
1687
1730
1680
1723
1714
1699
1741
1705
1738
1721
1730
1758
1713
1759
1733
1712
1761
1713
1774
1802
1804
1841
1849
1914
1883
1824
1815
1762
1793
1753
1747
1794
1743
1793
1782
1773
1807
1776
1785
1726
1924
2640
3213
2469
1631
1535
1499
1472
1757
1814
1815
1862
1845
1894
1887
1906
1941
1906
1969
1958
1968
2016
1979
2041
2041
2043
2099
2073
2110
2077
2064
2081
2031
2083
2031
2002
2026
1954
1993
1969
1942
1970
1937
1973
1955
1954
1996
1939
1985
1973
1981
2030
1997
2042
2019
2017
2058
2013
2068
2031
2005
2039
1993
2044
2023
2008
2042
2000
2036
2013
2005
2043
1991
2023
2032
2064
2095
2054
2145
2127
2087
2064
1998
2007
1968
1954
1990
1925
1964
1939
1949
1984
1937
1973
1889
1938
2409
3281
3170
2032
1680
1616
1563
1841
1911
1918
1953
1927
1982
1968
1966
2000
1971
2029
2012
2025
2075
2032
2081
2081
2094
2114
2075
2121
2095
2071
2090
2025
2058
2010
1991
2005
1936
1962
1913
1903
1922
1870
1917
1888
1895
1917
1874
1917
1904
1888
1931
1885
1927
1904
1904
1942
1893
1933
1909
1911
1926
1877
1922
1904
1885
1904
1868
1910
1889
1885
1904
1872
1910
1873
1887
1959
1934
1958
1969
1994
2001
1914
1922
1885
1859
1861
1810
1841
1821
1827
1843
1794
1847
1823
1801
1771
1908
2608
3305
2489
1711
1488
1422
1589
1762
1805
1759
1822
1806
1797
1840
1807
1855
1842
1848
1885
1867
1906
1894
1916
1968
1925
1983
1955
1957
1975
1910
1950
1918
1919
1915
1843
1870
1814
1794
1808
1757
1801
1767
1776
1794
1746
1805
1778
1791
1817
1786
1834
1807
1807
1839
1805
1840
1808
1821
1847
1814
1852
1810
1808
1847
1810
1850
1816
1823
1863
1810
1863
1831
1833
1858
1827
1863
1862
1904
1936
1885
1990
1959
1943
1920
1849
1869
1827
1815
1840
1801
1847
1826
1821
1840
1814
1858
1774
1744
2093
2896
3131
2032
1588
1509
1430
1687
1774
1773
1790
1762
1813
1790
1810
1839
1797
1842
1834
1842
1883
1856
1904
1878
1892
1926
1899
1952
1911
1890
1897
1843
1872
1820
1820
1811
1746
1758
1709
1712
1725
1669
1711
1658
1678
1708
1665
1703
1673
1690
1698
1666
1727
1690
1693
1713
1679
1718
1683
1680
1702
1655
1692
1653
1657
1690
1648
1681
1646
1658
1683
1645
1696
1660
1674
1689
1648
1727
1718
1712
1755
1767
1804
1730
1701
1691
1638
1666
1623
1632
1633
1603
1648
1610
1631
1655
1601
1594
1710
2333
3017
2311
1519
1367
1317
1323
1490
1647
1602
1639
1680
1647
1701
1662
1691
1712
1697
1760
1728
1754
1792
1774
1815
1799
1831
1846
1794
1840
1797
1802
1815
1762
1798
1745
1741
1740
1689
1739
1698
1699
1714
1685
1722
1686
1703
1744
1709
1762
1725
1744
1790
1744
1805
1775
1779
1808
1783
1827
1790
1823
1837
1806
1856
1811
1829
1844
1825
1875
1840
1861
1891
1854
1906
1926
1968
1974
1975
2066
2009
1997
1969
1905
1949
1904
1915
1937
1883
1936
1897
1934
1953
1901
1935
1840
2019
2687
3447
2741
1790
1697
1616
1609
1893
1923
1943
1970
1963
2029
1993
2015
2047
2026
2096
2063
2095
2111
2087
2154
2134
2151
2173
2155
2199
2160
2157
2160
2123
2161
2107
2087
2083
2032
2077
2022
2019
2023
1980
2027
1991
1997
2004
1970
2015
1979
2002
2019
1973
2032
2006
2018
2025
1991
2027
1977
2003
2001
1968
2002
1972
1990
2000
1949
1985
1953
1966
1983
1939
1981
1940
1971
1985
1943
1985
1983
2042
2027
1993
2105
2044
2036
1991
1931
1949
1902
1911
1915
1871
1914
1873
1894
1904
1861
1897
1788
1920
2501
3349
2837
1806
1607
1503
1535
1813
1837
1840
1859
1841
1907
1877
1890
1909
1902
1950
1911
1953
1971
1955
2014
1975
2023
2038
2003
2060
2000
2012
2005
1962
2002
1936
1942
1926
1873
1901
1841
1856
1850
1809
1860
1809
1824
1835
1808
1870
1831
1860
1856
1837
1882
1840
1863
1878
1850
1902
1857
1873
1889
1846
1891
1845
1865
1871
1843
1882
1856
1873
1874
1843
1886
1841
1869
1873
1839
1892
1893
1945
1941
1925
2018
1970
1951
1926
1873
1887
1844
1840
1851
1819
1868
1808
1842
1854
1819
1863
1759
1821
2307
3199
2954
1839
1557
1455
1503
1777
1793
1803
1824
1808
1858
1822
1855
1867
1840
1903
1872
1919
1921
1910
1968
1937
1975
2000
1975
2019
1982
1969
1950
1915
1953
1893
1899
1883
1840
1863
1806
1813
1809
1771
1805
1763
1799
1807
1773
1815
1795
1815
1812
1794
1840
1806
1825
1829
1809
1853
1799
1830
1841
1810
1847
1808
1831
1840
1808
1841
1803
1835
1827
1785
1835
1806
1835
1814
1785
1840
1796
1837
1875
1839
1873
1890
1915
1884
1808
1821
1767
1770
1758
1719
1762
1721
1751
1730
1699
1757
1707
1664
1702
2146
3043
2736
1723
1433
1339
1360
1514
1654
1650
1629
1691
1653
1681
1688
1665
1715
1682
1723
1722
1712
1755
1732
1775
1788
1781
1838
1791
1811
1801
1765
1799
1735
1759
1739
1685
1708
1643
1658
1648
1616
1654
1601
1639
1648
1616
1649
1616
1652
1658
1633
1683
1655
1672
1677
1667
1712
1662
1696
1699
1654
1699
1659
1687
1699
1669
1706
1663
1694
1681
1653
1711
1669
1696
1716
1730
1777
1735
1839
1833
1761
1775
1718
1712
1685
1657
1695
1648
1697
1680
1654
1711
1670
1703
1646
1659
2155
2961
2790
1798
1414
1455
1296
1520
1693
1693
1753
1728
1778
1779
1776
1837
1791
1840
1867
1843
1890
1866
1922
1943
1938
2001
1968
2005
1989
1950
1989
1946
1967
1967
1917
1943
1883
1900
1917
1899
1937
1882
1935
1941
1911
1953
1909
1953
1941
1936
1993
1950
1991
1981
1966
2011
1971
2001
2015
1985
2019
1983
2005
1996
1967
2013
1967
2006
2009
1980
2015
1975
2005
2003
2006
2097
2047
2097
2155
2132
2144
2039
2064
2032
1986
2013
1962
1998
1993
1967
2011
1974
2001
1995
1920
2005
2374
3344
3287
2129
1766
1664
1630
1823
1954
2003
1959
2002
2031
2012
2047
2015
2062
2067
2037
2098
2065
2110
2110
2102
2153
2112
2146
2137
2103
2135
2071
2091
2083
2037
2047
1986
1993
1968
1939
1968
1911
1936
1921
1895
1943
1904
1915
1907
1894
1949
1904
1936
1948
1934
1981
1936
1955
1961
1935
1968
1918
1949
1949
1922
1950
1903
1937
1936
1907
1938
1889
1930
1926
1906
1943
1902
1958
1999
1958
2019
2021
2032
1990
1931
1937
1874
1895
1879
1851
1887
1840
1873
1863
1839
1883
1834
1791
1893
2428
3397
2819
1840
1587
1446
1577
1751
1857
1843
1813
1871
1848
1897
1889
1877
1929
1894
1939
1950
1949
1995
1966
2006
2017
2015
2046
1991
2018
1984
1963
1984
1936
1945
1918
1863
1893
1834
1847
1827
1808
1839
1789
1819
1819
1802
1838
1802
1839
1823
1815
1864
1826
1859
1854
1839
1872
1839
1861
1855
1837
1873
1825
1851
1839
1824
1869
1815
1839
1839
1823
1863
1806
1836
1830
1819
1878
1886
1907
1897
1936
1972
1904
1888
1845
1808
1840
1782
1805
1786
1767
1808
1776
1793
1790
1771
1728
1727
2217
3109
2896
1872
1503
1427
1450
1671
1779
1727
1775
1779
1776
1811
1784
1819
1819
1821
1869
1826
1877
1882
1879
1935
1919
1949
1936
1914
1937
1893
1915
1890
1869
1877
1818
1834
1785
1756
1780
1739
1743
1724
1709
1749
1685
1718
1712
1691
1734
1701
1731
1712
1697
1733
1689
1725
1707
1689
1712
1658
1693
1680
1677
1708
1648
1686
1666
1648
1680
1638
1671
1657
1642
1678
1619
1653
1667
1680
1714
1666
1747
1776
1750
1734
1654
1664
1623
1599
1632
1576
1623
1617
1585
1626
1598
1637
1579
1554
1857
2557
2893
2000
1382
1394
1216
1343
1535
1577
1614
1578
1635
1625
1634
1685
1635
1686
1686
1687
1738
1725
1766
1765
1777
1821
1791
1847
1811
1793
1827
1773
1799
1778
1746
1776
1708
1739
1701
1680
1712
1664
1707
1697
1689
1719
1681
1727
1712
1710
1750
1714
1750
1747
1742
1773
1726
1771
1758
1738
1783
1744
1776
1750
1738
1780
1739
1787
1754
1747
1800
1741
1776
1776
1782
1846
1819
1847
1901
1902
1920
1834
1855
1823
1798
1834
1779
1809
1808
1802
1837
1797
1837
1835
1774
1788
2026
2853
3223
2256
1651
1581
1499
1559
1776
1883
1838
1904
1905
1905
1969
1948
1989
1991
1997
2039
2017
2086
2064
2092
2150
2115
2162
2151
2135
2175
2114
2160
2127
2102
2119
2062
2095
2042
2019
2064
1999
2016
2018
2000
2032
1994
2033
2011
2013
2043
2013
2064
2032
2030
2086
2029
2080
2063
2035
2077
2034
2064
2047
2035
2064
2017
2065
2034
2030
2064
2001
2042
2021
2006
2046
2002
2059
2084
2082
2104
2107
2159
2112
2039
2055
1967
1994
1965
1949
1981
1926
1941
1929
1936
1968
1921
1898
1911
2352
3318
3159
2085
1683
1575
1559
1757
1906
1885
1872
1921
1896
1943
1925
1926
1975
1929
1984
1981
1977
2026
2000
2039
2032
2061
2086
2035
2077
2035
2019
2046
1973
1999
1979
1939
1955
1897
1909
1883
1874
1894
1853
1886
1861
1856
1904
1855
1911
1904
1895
1936
1899
1935
1936
1937
1970
1919
1961
1936
1931
1947
1917
1954
1921
1904
1937
1911
1953
1915
1902
1931
1895
1938
1905
1906
1932
1893
1968
1978
1947
2000
2000
2035
1971
1919
1925
1856
1889
1858
1842
1861
1809
1855
1840
1828
1871
1802
1778
1885
2491
3410
2653
1762
1555
1435
1583
1757
1835
1786
1793
1846
1815
1860
1842
1845
1878
1851
1906
1889
1904
1948
1920
1967
1967
1978
2014
1968
1979
1942
1933
1951
1903
1920
1876
1857
1863
1809
1847
1808
1789
1793
1759
1798
1776
1774
1805
1773
1813
1791
1793
1834
1789
1842
1824
1821
1842
1820
1857
1836
1831
1854
1806
1856
1840
1831
1849
1813
1841
1824
1830
1846
1805
1854
1826
1834
1863
1814
1856
1875
1890
1901
1904
1969
1935
1873
1875
1821
1828
1797
1776
1806
1759
1792
1774
1766
1801
1774
1774
1695
1904
2662
3215
2355
1623
1490
1402
1535
1750
1744
1744
1776
1755
1808
1799
1803
1835
1805
1856
1835
1841
1889
1869
1929
1916
1936
1968
1927
1966
1920
1905
1921
1873
1905
1872
1846
1851
1783
1808
1776
1775
1788
1734
1777
1755
1751
1787
1750
1798
1786
1777
1798
1765
1818
1799
1805
1829
1794
1836
1814
1814
1845
1792
1826
1800
1808
1838
1801
1837
1820
1814
1840
1806
1839
1794
1801
1826
1783
1824
1799
1814
1872
1856
1886
1901
1936
1939
1842
1855
1819
1798
1814
1751
1779
1745
1747
1780
1737
1773
1744
1718
1687
1785
2453
3143
2428
1627
1454
1365
1390
1615
1700
1645
1687
1680
1694
1715
1673
1728
1712
1717
1757
1712
1776
1759
1776
1815
1779
1842
1820
1819
1839
1790
1817
1776
1779
1789
1723
1746
1694
1664
1698
1648
1670
1645
1638
1666
1634
1659
1643
1648
1679
1628
1691
1657
1663
1709
1664
1701
1680
1682
1723
1666
1718
1696
1683
1712
1680
1723
1681
1691
1716
1678
1730
1691
1695
1736
1712
1803
1779
1774
1851
1821
1851
1776
1748
1747
1697
1733
1706
1712
1731
1671
1739
1714
1731
1734
1631
1708
2016
2844
2969
1971
1502
1462
1334
1467
1629
1741
1706
1726
1771
1738
1797
1759
1773
1818
1783
1851
1821
1835
1872
1851
1919
1891
1920
1958
1911
1945
1899
1895
1913
1856
1885
1854
1850
1856
1786
1829
1798
1813
1819
1776
1840
1808
1813
1855
1821
1867
1849
1865
1903
1863
1917
1899
1899
1935
1895
1945
1915
1919
1947
1913
1963
1918
1933
1963
1925
1972
1936
1954
1986
1955
2029
2031
2036
2083
2103
2153
2096
2045
2035
1970
2019
1965
1954
1980
1942
1997
1963
1968
2001
1950
1938
1967
2455
3445
3114
2066
1715
1688
1617
1791
1986
1965
1975
2015
1995
2061
2017
2034
2067
2039
2106
2082
2097
2126
2111
2160
2137
2154
2182
2143
2186
2135
2127
2144
2096
2127
2071
2065
2058
1991
2029
1981
1968
1995
1941
1978
1936
1947
1965
1925
1983
1949
1967
1990
1954
1989
1970
1968
1993
1952
1986
1943
1954
1974
1927
1965
1932
1951
1966
1918
1965
1926
1930
1958
1915
1955
1920
1940
1991
1983
2005
1981
2046
2064
1983
1980
1932
1921
1911
1859
1902
1872
1875
1886
1858
1904
1876
1871
1826
1874
2425
3303
2949
1905
1570
1521
1514
1757
1856
1813
1861
1847
1870
1895
1878
1931
1907
1935
1974
1936
1989
1974
2000
2032
1998
2064
2023
2041
2065
2007
2039
1985
1984
1991
1924
1961
1904
1895
1897
1840
1881
1843
1856
1867
1827
1875
1846
1854
1872
1840
1888
1858
1878
1903
1850
1894
1873
1882
1889
1856
1894
1858
1872
1886
1841
1901
1866
1870
1878
1842
1875
1850
1870
1868
1829
1884
1857
1921
1939
1900
1983
1967
1947
1923
1853
1871
1836
1819
1829
1796
1834
1782
1789
1823
1787
1831
1754
1743
2047
2812
3242
2154
1599
1491
1377
1654
1755
1776
1793
1765
1831
1803
1829
1851
1827
1879
1857
1872
1909
1885
1943
1920
1941
1974
1947
1996
1963
1961
1961
1918
1952
1904
1886
1885
1836
1856
1817
1808
1797
1770
1807
1761
1776
1789
1764
1808
1775
1795
1793
1777
1827
1797
1825
1828
1802
1849
1806
1817
1845
1815
1855
1806
1817
1835
1799
1839
1806
1815
1831
1799
1847
1796
1814
1840
1809
1834
1809
1872
1887
1851
1959
1929
1926
1898
1838
1862
1795
1793
1805
1781
1817
1766
1783
1808
1776
1822
1734
1729
2042
2829
3159
2076
1559
1472
1373
1627
1714
1739
1742
1716
1777
1741
1758
1776
1763
1817
1781
1815
1842
1797
1866
1847
1878
1913
1886
1918
1879
1882
1881
1840
1863
1797
1797
1783
1724
1770
1701
1704
1707
1649
1688
1651
1660
1667
1634
1682
1659
1681
1695
1658
1712
1678
1696
1694
1653
1705
1670
1693
1694
1658
1703
1666
1684
1699
1671
1712
1669
1680
1695
1651
1712
1661
1681
1706
1706
1763
1703
1767
1819
1782
1783
1695
1705
1699
1648
1696
1647
1665
1660
1621
1671
1645
1663
1662
1567
1729
2277
3024
2475
1535
1424
1328
1294
1520
1606
1659
1636
1665
1695
1669
1738
1705
1734
1761
1742
1791
1755
1798
1826
1792
1863
1842
1883
1881
1827
1873
1830
1840
1846
1797
1823
1764
1775
1767
1719
1756
1710
1734
1744
1714
1765
1716
1738
1755
1741
1789
1741
1769
1794
1771
1823
1780
1816
1827
1788
1835
1803
1831
1839
1795
1851
1818
1855
1856
1826
1894
1851
1862
1872
1846
1917
1907
1938
1969
2004
2040
1963
1954
1947
1882
1919
1883
1899
1903
1872
1917
1872
1918
1935
1906
1885
1893
2379
3323
3087
2043
1664
1651
1569
1739
1941
1917
1936
1949
1942
2001
1968
2007
2031
2000
2063
2028
2081
2097
2089
2140
2112
2160
2165
2131
2176
2131
2152
2144
2105
2134
2083
2074
2069
2015
2055
2001
2023
2016
1986
2032
1990
2020
2015
1983
2043
2017
2036
2037
2009
2073
2016
2032
2064
2023
2045
2011
2038
2039
2014
2053
2007
2027
2037
2002
2054
2006
2026
2032
2003
2043
2000
2021
2032
2047
2107
2055
2117
2157
2101
2095
2003
2005
1993
1952
1979
1931
1953
1947
1910
1962
1918
1950
1943
1851
2042
2655
3536
2723
1792
1670
1501
1666
1886
1881
1911
1875
1931
1935
1906
1968
1927
1959
1971
1961
2021
1986
2010
2031
2025
2064
2028
2071
2068
2021
2055
2004
2006
1990
1957
1983
1907
1911
1903
1851
1888
1833
1858
1866
1831
1872
1833
1862
1859
1831
1879
1839
1867
1883
1862
1908
1856
1874
1889
1866
1902
1855
1879
1872
1855
1893
1861
1875
1872
1849
1894
1847
1856
1866
1840
1878
1833
1861
1868
1860
1920
1876
1908
1977
1938
1962
1872
1870
1840
1793
1828
1771
1792
1793
1775
1819
1776
1792
1796
1728
1753
2047
2917
3158
2043
1584
1429
1419
1660
1735
1775
1733
1780
1789
1777
1830
1792
1825
1843
1822
1872
1855
1891
1904
1904
1959
1924
1969
1957
1925
1963
1914
1937
1920
1871
1890
1835
1840
1814
1766
1799
1747
1772
1765
1735
1776
1731
1774
1771
1746
1795
1759
1795
1798
1778
1821
1788
1813
1811
1799
1833
1789
1823
1831
1795
1841
1795
1833
1825
1790
1837
1790
1824
1834
1799
1831
1790
1815
1799
1787
1840
1829
1871
1846
1870
1953
1899
1878
1835
1779
1797
1744
1770
1747
1718
1761
1718
1743
1737
1716
1730
1635
1826
2480
3111
2391
1535
1450
1323
1394
1648
1647
1665
1666
1650
1707
1677
1709
1703
1693
1744
1711
1744
1742
1744
1808
1765
1799
1807
1806
1841
1798
1810
1789
1755
1791
1735
1730
1695
1648
1675
1616
1650
1638
1589
1642
1600
1629
1632
1609
1649
1591
1635
1644
1614
1674
1623
1663
1666
1640
1683
1626
1675
1667
1636
1701
1637
1664
1663
1631
1678
1648
1677
1669
1650
1693
1648
1707
1729
1715
1751
1755
1826
1821
1742
1751
1689
1705
1679
1655
1691
1655
1686
1664
1674
1719
1671
1679
1638
1789
2475
3059
2368
1535
1435
1407
1344
1616
1703
1694
1755
1709
1759
1763
1731
1789
1761
1792
1797
1810
1869
1834
1898
1891
1890
1958
1910
1936
1929
1899
1935
1890
1897
1894
1870
1875
1811
1839
1808
1783
1822
1777
1824
1832
1808
1854
1819
1858
1850
1855
1904
1853
1906
1906
1903
1963
1906
1950
1953
1920
1974
1933
1971
1968
1953
1982
1952
1998
1983
1968
2023
1967
2007
2032
2039
2099
2064
2150
2134
2103
2097
2028
2042
2026
1986
2030
1974
2015
2018
1980
2025
1997
2019
1953
1981
2451
3329
3262
2121
1735
1740
1601
1855
1995
1982
2031
1989
2031
2044
2046
2080
2037
2101
2094
2089
2145
2112
2156
2157
2155
2211
2175
2199
2174
2156
2178
2126
2160
2112
2079
2098
2012
2039
2007
1975
2017
1957
1995
1975
1957
1994
1957
2001
2001
1987
2020
1987
2029
2020
2007
2055
1999
2033
2029
2003
2053
1993
2022
2003
1980
2023
1974
2007
1998
1983
2011
1968
2013
1994
1995
2074
2017
2057
2102
2085
2108
2009
2021
1979
1936
1955
1904
1938
1911
1897
1942
1881
1920
1909
1840
1878
2179
3091
3295
2131
1664
1511
1511
1729
1831
1851
1824
1878
1872
1861
1919
1872
1931
1914
1904
1943
1919
1973
1983
1968
2019
1995
2036
2029
1997
2016
1964
1987
1971
1930
1948
1893
1903
1872
1839
1840
1791
1840
1806
1792
1833
1799
1840
1821
1808
1859
1810
1857
1849
1820
1856
1813
1851
1845
1829
1865
1818
1861
1842
1825
1858
1824
1854
1829
1814
1841
1803
1836
1823
1811
1842
1804
1887
1893
1853
1941
1920
1936
1878
1840
1844
1779
1806
1771
1770
1806
1744
1785
1777
1776
1815
1743
1729
1897
2606
3307
2347
1631
1472
1365
1599
1715
1779
1759
1765
1794
1775
1824
1826
1808
1844
1826
1875
1862
1872
1926
1887
1945
1936
1948
1981
1927
1968
1936
1920
1936
1882
1902
1854
1825
1840
1774
1799
1773
1759
1776
1725
1767
1764
1760
1787
1749
1792
1779
1781
1810
1767
1808
1801
1792
1821
1779
1830
1814
1797
1838
1789
1821
1809
1802
1827
1786
1829
1819
1805
1834
1792
1825
1838
1869
1893
1850
1959
1935
1901
1882
1816
1821
1776
1773
1790
1744
1778
1767
1755
1766
1731
1776
1707
1717
2129
2934
2943
1845
1469
1424
1341
1609
1691
1671
1710
1671
1729
1717
1724
1753
1712
1761
1766
1765
1807
1776
1840
1819
1813
1866
1835
1872
1847
1845
1856
1776
1822
1781
1742
1759
1690
1714
1667
1650
1675
1633
1664
1635
1631
1661
1621
1674
1649
1655
1682
1650
1703
1677
1674
1707
1677
1713
1681
1680
1721
1669
1710
1680
1679
1712
1663
1709
1667
1674
1710
1690
1749
1709
1755
1825
1775
1776
1702
1685
1686
1626
1664
1642
1645
1677
1618
1683
1673
1667
1680
1583
1737
2255
3005
2526
1584
1437
1381
1310
1554
1638
1687
1674
1697
1731
1696
1758
1728
1735
1774
1743
1799
1781
1801
1853
1819
1895
1882
1887
1917
1865
1898
1853
1859
1863
1808
1845
1792
1783
1805
1728
1760
1737
1735
1755
1719
1778
1741
1751
1791
1747
1801
1791
1804
1821
1771
1842
1821
1813
1840
1802
1868
1826
1840
1865
1823
1865
1855
1865
1877
1840
1900
1904
1941
1967
1958
2043
1996
1968
1951
1887
1905
1869
1872
1904
1853
1901
1879
1887
1918
1886
1906
1839
2035
2772
3394
2583
1713
1654
1586
1597
1872
1904
1920
1961
1933
1994
1962
1965
2001
1968
1930
1649
1488
1455
1369
1412
1379
1395
1437
1403
1466
1442
1446
1481
1435
1484
1453
1456
1479
1451
1508
1470
1482
1519
1487
1562
1535
1568
1600
1582
1651
1638
1667
1712
1687
1755
1743
1760
1792
1766
1820
1803
1829
1867
1840
1892
1865
1886
1921
1884
1936
1917
1937
1967
1946
2062
2036
2043
2134
2112
2129
2058
2034
2021
1982
2021
1984
1985
2009
1963
2023
2000
2003
2031
1961
2001
2276
3115
3604
2383
1825
1691
1619
1861
1975
2034
1994
2016
2057
2037
2107
2059
2064
2101
2075
2137
2118
2137
2179
2153
2218
2192
2211
2227
2179
2209
2166
2170
2167
2118
2157
2096
2084
2080
2015
2062
2011
2001
2015
1978
2017
1985
1999
2013
1979
2029
1993
2006
2029
1985
2038
2007
2019
2038
1986
2032
2002
1999
2013
1981
2020
1986
2000
2001
1961
2000
1965
1968
2011
2011
2064
2007
2080
2097
2037
2030
1966
1950
1942
1887
1929
1893
1903
1914
1867
1909
1878
1906
1872
1799
2115
2850
3366
2322
1645
1579
1466
1712
1861
1831
1869
1853
1876
1902
1865
1919
1899
1923
1940
1904
1964
1943
1973
2003
1971
2031
1989
2001
2014
1978
2009
1961
1951
1958
1911
1941
1881
1861
1857
1803
1846
1808
1811
1809
1781
1833
1798
1826
1851
1813
1850
1822
1843
1869
1825
1872
1821
1839
1861
1820
1874
1837
1840
1865
1816
1861
1835
1840
1846
1825
1866
1805
1843
1901
1872
1919
1945
1958
1942
1852
1877
1839
1822
1808
1776
1823
1777
1798
1798
1777
1828
1785
1763
1747
2000
2850
3115
2089
1571
1427
1419
1616
1754
1762
1730
1785
1756
1781
1812
1776
1825
1808
1823
1838
1817
1872
1841
1874
1898
1883
1919
1877
1893
1904
1845
1866
1823
1838
1818
1761
1776
1724
1717
1713
1649
1686
1638
1655
1662
1616
1667
1639
1663
1676
1630
1693
1654
1670
1669
1648
1689
1652
1677
1670
1629
1666
1629
1665
1671
1627
1661
1608
1643
1648
1617
1683
1670
1681
1713
1744
1792
1709
1675
1665
1621
1647
1585
1606
1629
1594
1625
1585
1612
1621
1595
1582
1571
2023
2843
2670
1755
1341
1354
1243
1385
1611
1584
1604
1642
1617
1675
1649
1680
1682
1665
1731
1702
1742
1759
1730
1797
1767
1814
1840
1798
1843
1798
1808
1791
1754
1793
1731
1744
1730
1695
1725
1663
1679
1680
1657
1707
1665
1699
1710
1681
1746
1710
1739
1752
1719
1773
1731
1757
1776
1744
1792
1753
1787
1791
1762
1808
1763
1795
1798
1770
1809
1782
1853
1890
1862
1919
1936
1975
1953
1879
1895
1833
1855
1841
1811
1869
1832
1854
1861
1841
1889
1860
1847
1844
2193
3109
3158
2139
1658
1617
1535
1663
1890
1921
1885
1953
1939
1971
1987
1971
2014
1983
2027
2028
2026
2096
2064
2121
2128
2121
2160
2130
2150
2143
2118
2149
2099
2103
2091
2041
2073
2006
2028
2010
1982
2027
1975
2006
2006
1995
2047
2000
2031
2032
2015
2063
2005
2045
2060
2020
2069
2019
2059
2047
2014
2058
2005
2028
2028
2004
2063
2007
2032
2026
1997
2059
2036
2075
2095
2119
2142
2061
2025
2009
1970
1984
1925
1949
1939
1918
1947
1907
1953
1943
1904
1898
1942
2491
3402
2918
1918
1601
1534
1585
1791
1919
1870
1899
1907
1909
1941
1915
1950
1955
1941
2000
1968
2008
2022
2011
2071
2039
2085
2063
2038
2096
2026
2047
2023
1995
2016
1954
1957
1937
1899
1933
1871
1891
1879
1856
1904
1840
1886
1879
1861
1915
1886
1920
1904
1886
1935
1891
1926
1926
1897
1937
1892
1930
1915
1898
1938
1901
1923
1915
1890
1935
1875
1906
1904
1890
1929
1910
1971
1968
1942
2034
1984
1995
1936
1882
1913
1843
1869
1862
1827
1863
1817
1851
1840
1810
1854
1760
1817
2224
3099
3097
1936
1575
1443
1471
1745
1774
1793
1795
1791
1853
1815
1847
1840
1838
1892
1865
1887
1891
1891
1953
1914
1962
1962
1958
1994
1953
1970
1946
1903
1935
1872
1891
1861
1813
1840
1774
1795
1782
1779
1794
1741
1777
1772
1760
1805
1759
1807
1803
1786
1823
1791
1829
1814
1793
1839
1798
1825
1823
1802
1841
1800
1831
1815
1802
1840
1782
1827
1809
1791
1833
1795
1827
1823
1821
1904
1867
1895
1927
1929
1951
1870
1862
1831
1797
1826
1775
1808
1803
1776
1808
1764
1807
1793
1749
1733
1859
2589
3278
2384
1665
1485
1419
1594
1734
1788
1749
1780
1791
1789
1823
1777
1840
1841
1840
1888
1857
1893
1905
1887
1936
1902
1951
1936
1910
1942
1892
1907
1893
1866
1875
1815
1813
1776
1744
1767
1711
1728
1717
1711
1740
1695
1727
1722
1710
1744
1703
1740
1734
1722
1761
1707
1741
1744
1733
1747
1699
1743
1729
1695
1730
1691
1717
1690
1680
1717
1666
1717
1691
1680
1721
1666
1733
1745
1729
1770
1783
1837
1776
1703
1725
1665
1680
1649
1634
1668
1641
1664
1653
1643
1679
1634
1606
1644
2087
2913
2596
1687
1375
1339
1283
1429
1618
1616
1599
1650
1633
1691
1675
1653
1719
1665
1724
1709
1710
1758
1739
1791
1794
1802
1847
1817
1854
1801
1779
1846
1771
1807
1769
1747
1779
1718
1739
1715
1701
1724
1684
1727
1714
1687
1739
1698
1744
1712
1713
1761
1716
1770
1757
1749
1806
1745
1787
1757
1762
1795
1742
1781
1757
1742
1789
1755
1779
1770
1770
1793
1790
1865
1855
1840
1939
1894
1923
1863
1837
1867
1794
1807
1802
1802
1823
1783
1840
1805
1825
1861
1754
1802
2110
2879
3253
2195
1631
1610
1470
1633
1791
1877
1863
1867
1936
1903
1942
1941
1945
1993
1958
2006
1989
2002
2061
2037
2096
2064
2077
2124
2066
2137
2089
2072
2106
2054
2082
2047
2026
2030
1971
2019
1987
1977
2016
1975
2018
1996
1995
2031
1995
2021
2030
2031
2066
2017
2079
2038
2034
2082
2023
2075
2047
2026
2064
2011
2066
2037
2026
2053
2015
2071
2026
2032
2061
2021
2112
2097
2086
2153
2132
2158
2097
2060
2055
1997
2009
1982
1983
1998
1935
2001
1981
1974
2023
1938
1929
2127
2865
3568
2475
1803
1675
1566
1776
1926
1993
1948
1952
1990
1963
2022
1999
2003
2031
1991
2059
2053
2078
2098
2076
2145
2118
2136
2174
2112
2116
2077
2077
2081
2022
2033
2021
1994
1982
1923
1951
1904
1895
1905
1871
1918
1879
1887
1903
1890
1913
1904
1904
1936
1885
1930
1904
1904
1939
1900
1936
1911
1894
1915
1866
1906
1897
1885
1920
1871
1923
1894
1883
1897
1856
1917
1925
1920
1952
1970
1994
1943
1904
1891
1834
1881
1818
1824
1834
1787
1833
1805
1817
1840
1787
1783
1802
2227
3149
2975
1927
1535
1424
1508
1699
1821
1776
1780
1808
1787
1823
1803
1818
1850
1809
1870
1849
1859
1915
1890
1923
1926
1946
1971
1923
1976
1936
1931
1946
1897
1922
1874
1855
1862
1787
1835
1788
1782
1804
1772
1807
1785
1789
1812
1774
1819
1805
1813
1837
1793
1838
1805
1808
1839
1799
1846
1813
1830
1851
1809
1857
1820
1840
1844
1788
1840
1811
1811
1856
1802
1881
1879
1872
1929
1922
1947
1871
1840
1840
1776
1811
1779
1769
1779
1735
1776
1748
1751
1778
1709
1696
1840
2523
3194
2281
1570
1425
1315
1502
1639
1693
1662
1681
1722
1687
1731
1695
1702
1742
1725
1776
1748
1770
1819
1779
1835
1807
1822
1847
1799
1819
1776
1788
1815
1743
1779
1705
1707
1695
1655
1658
1638
1626
1619
1601
1642
1606
1621
1648
1612
1651
1641
1631
1679
1627
1661
1646
1655
1677
1648
1693
1647
1679
1680
1648
1687
1662
1663
1673
1646
1676
1651
1712
1744
1685
1781
1758
1746
1743
1665
1680
1647
1621
1663
1616
1651
1613
1637
1662
1637
1685
1597
1607
1926
2677
2875
1921
1398
1424
1253
1406
1589
1639
1653
1650
1706
1681
1708
1738
1713
1765
1733
1767
1803
1774
1835
1812
1839
1872
1845
1906
1861
1856
1870
1822
1859
1826
1811
1811
1755
1775
1734
1744
1757
1703
1770
1728
1744
1785
1727
1803
1761
1771
1798
1775
1824
1805
1811
1845
1805
1859
1818
1833
1849
1812
1853
1830
1856
1884
1839
1901
1894
1946
1946
1938
2055
1999
1975
1950
1887
1939
1850
1866
1916
1883
1905
1878
1907
1918
1889
1927
1829
1987
2624
3413
2757
1789
1677
1598
1567
1870
1921
1936
1947
1913
1994
1968
2000
2018
1989
2061
2025
2054
2096
2063
2129
2113
2128
2162
2127
2176
2128
2131
2139
2102
2123
2091
2088
2067
2000
2023
1984
2000
2002
1957
2000
1970
2000
2011
1975
2030
1998
2011
2017
1977
2045
2015
2034
2064
2025
2046
2008
2017
2025
1985
2043
2003
2029
2038
1989
2045
2032
2067
2084
2092
2153
2096
2073
2032
1986
2001
1936
1970
1958
1920
1954
1925
1943
1955
1925
1936
1869
2045
2729
3454
2652
1751
1646
1530
1651
1904
1894
1907
1927
1913
1968
1933
1953
1963
1941
1990
1967
2007
2031
2000
2072
2027
2063
2080
2038
2085
2030
2047
2041
1997
2035
1967
1968
1968
1907
1936
1886
1899
1902
1856
1899
1858
1897
1904
1868
1918
1883
1909
1923
1883
1933
1902
1925
1938
1893
1936
1910
1919
1918
1895
1939
1889
1910
1920
1891
1945
1905
1942
1984
1954
2000
2026
2033
2013
1926
1952
1879
1887
1877
1835
1886
1836
1853
1863
1842
1891
1849
1806
1809
2119
3018
3181
2068
1598
1456
1503
1709
1842
1823
1793
1856
1824
1855
1872
1854
1901
1865
1885
1915
1897
1947
1922
1954
1974
1954
2000
1971
1979
1968
1936
1961
1907
1914
1901
1847
1872
1822
1826
1808
1764
1811
1773
1803
1807
1776
1811
1778
1803
1819
1782
1840
1798
1833
1830
1808
1856
1807
1840
1840
1812
1847
1799
1825
1834
1808
1849
1811
1836
1830
1808
1899
1859
1879
1933
1919
1945
1860
1853
1827
1799
1808
1751
1781
1782
1754
1793
1746
1782
1782
1740
1715
1833
2505
3230
2401
1643
1451
1392
1569
1723
1777
1732
1776
1791
1785
1830
1793
1813
1830
1824
1872
1830
1870
1889
1877
1933
1908
1942
1936
1894
1931
1874
1889
1873
1839
1853
1793
1795
1778
1744
1772
1707
1729
1719
1697
1723
1687
1719
1710
1691
1727
1685
1726
1716
1685
1744
1701
1719
1712
1682
1727
1675
1708
1700
1674
1715
1663
1691
1676
1670
1735
1721
1730
1765
1789
1805
1722
1711
1680
1633
1663
1614
1632
1614
1603
1648
1607
1633
1634
1610
1600
1642
2219
2927
2399
1535
1329
1311
1270
1469
1635
1593
1645
1642
1634
1650
1488
1482
1441
1431
1491
1451
1489
1503
1501
1559
1535
1600
1605
1582
1631
1586
1603
1600
1581
1615
1559
1584
1564
1521
1569
1520
1535
1520
1531
1587
1524
1590
1586
1576
1632
1582
1634
1648
1647
1675
1644
1687
1671
1669
1718
1673
1712
1706
1694
1744
1696
1737
1725
1710
1785
1776
1831
1827
1871
1917
1840
1850
1809
1775
1797
1744
1779
1781
1769
1810
1776
1815
1812
1792
1784
1792
2263
3095
2937
1965
1535
1569
1458
1645
1859
1830
1882
1888
1891
1947
1911
1957
1957
1966
2015
1977
2034
2045
2058
2111
2076
2138
2119
2113
2158
2095
2131
2126
2104
2125
2070
2087
2064
2022
2057
2006
2044
2012
2000
2039
1993
2044
2031
2015
2064
2022
2071
2064
2070
2112
2061
2096
2081
2066
2112
2053
2094
2077
2064
2096
2055
2096
2071
2062
2091
2067
2144
2139
2119
2205
2147
2175
2112
2066
2077
2013
2062
2018
2000
2034
1983
2032
2003
1999
2029
1942
1969
2240
3010
3536
2363
1762
1669
1582
1819
1936
1991
1958
1962
2008
1980
2019
2007
2021
2065
2032
2077
2062
2067
2125
2089
2142
2140
2132
2161
2107
2134
2100
2092
2118
2057
2065
2021
2000
2014
1946
1973
1936
1925
1955
1911
1955
1939
1932
1971
1936
1968
1955
1957
1995
1942
1985
1968
1971
2002
1956
1983
1951
1953
1973
1933
1971
1943
1934
1970
1921
1959
1936
1931
1971
1972
2026
1987
2034
2082
2002
1991
1947
1918
1919
1867
1903
1881
1877
1901
1849
1894
1871
1874
1861
1779
2095
2855
3318
2256
1602
1519
1457
1687
1839
1795
1834
1805
1825
1867
1829
1886
1857
1858
1901
1872
1921
1916
1919
1963
1935
1986
1968
1968
1981
1935
1961
1930
1922
1926
1863
1883
1840
1808
1825
1771
1811
1778
1761
1786
1749
1795
1767
1772
1810
1782
1827
1803
1803
1831
1785
1825
1808
1808
1821
1777
1834
1805
1808
1838
1788
1826
1803
1805
1825
1799
1840
1808
1846
1882
1839
1931
1936
1905
1899
1806
1834
1792
1782
1813
1754
1775
1755
1760
1794
1760
1797
1750
1707
1863
2466
3264
2481
1643
1498
1346
1573
1728
1749
1776
1738
1783
1775
1787
1799
1775
1830
1808
1838
1875
1839
1893
1872
1885
1920
1893
1946
1905
1894
1907
1851
1873
1842
1830
1819
1759
1783
1733
1715
1725
1676
1713
1678
1686
1712
1676
1712
1693
1699
1732
1680
1712
1674
1681
1703
1655
1711
1669
1681
1700
1661
1693
1674
1680
1687
1645
1675
1647
1645
1677
1635
1712
1697
1707
1745
1766
1819
1739
1687
1693
1616
1647
1607
1615
1641
1590
1631
1603
1613
1639
1600
1599
1590
2013
2835
2619
1711
1353
1338
1254
1408
1618
1600
1613
1650
1642
1703
1675
1683
1712
1686
1747
1715
1744
1775
1737
1815
1799
1818
1840
1806
1840
1802
1793
1808
1766
1817
1773
1757
1766
1708
1733
1690
1697
1709
1680
1728
1690
1706
1723
1697
1751
1711
1726
1747
1715
1770
1731
1757
1786
1741
1776
1758
1765
1774
1722
1784
1757
1776
1787
1744
1792
1789
1823
1851
1845
1919
1856
1845
1814
1756
1800
1741
1744
1774
1731
1779
1743
1776
1789
1747
1791
1699
1831
2420
3199
2742
1726
1535
1502
1427
1717
1808
1842
1868
1840
1913
1888
1904
1955
1931
1989
1967
1997
2023
2011
2084
2064
2106
2128
2096
2160
2109
2112
2129
2094
2122
2083
2087
2064
2024
2064
2000
2014
2032
2000
2047
2023
2031
2061
2032
2079
2041
2080
2093
2065
2112
2074
2098
2115
2067
2135
2087
2090
2108
2071
2120
2085
2098
2096
2069
2115
2077
2096
2110
2086
2177
2145
2158
2229
2173
2182
2102
2087
2057
2029
2078
2005
2022
2046
2001
2044
2007
2031
2032
1942
2066
2535
3536
3068
1958
1734
1589
1685
1934
1948
2000
1959
1985
2023
2000
2045
2005
2037
2054
2037
2099
2064
2102
2124
2096
2159
2128
2128
2144
2106
2137
2074
2077
2085
2038
2067
1996
2000
1979
1922
1968
1923
1919
1928
1898
1937
1904
1918
1920
1892
1937
1897
1927
1935
1887
1943
1902
1904
1927
1893
1936
1906
1907
1906
1879
1926
1878
1898
1905
1858
1905
1862
1877
1904
1900
1945
1919
1968
1994
1954
1963
1868
1872
1865
1803
1847
1806
1815
1823
1796
1839
1804
1822
1792
1712
1919
2538
3329
2517
1651
1523
1390
1605
1798
1776
1806
1772
1808
1825
1793
1853
1825
1855
1871
1856
1905
1872
1919
1933
1916
1979
1936
1968
1968
1927
1959
1910
1920
1910
1866
1894
1829
1835
1820
1786
1810
1757
1762
1773
1747
1799
1757
1785
1796
1771
1809
1783
1808
1803
1782
1827
1778
1805
1819
1783
1829
1795
1814
1812
1791
1831
1804
1815
1819
1796
1840
1791
1826
1819
1798
1845
1840
1894
1887
1884
1971
1919
1905
1847
1805
1838
1774
1785
1790
1758
1788
1734
1774
1776
1757
1795
1675
1789
2349
3159
2673
1697
1497
1391
1473
1718
1714
1738
1750
1740
1787
1770
1790
1786
1769
1816
1791
1826
1829
1821
1875
1847
1875
1888
1860
1888
1843
1863
1855
1808
1845
1792
1796
1777
1723
1754
1671
1690
1680
1645
1690
1651
1665
1676
1651
1685
1648
1684
1675
1664
1717
1663
1676
1679
1650
1694
1648
1683
1664
1641
1674
1641
1669
1663
1647
1692
1648
1677
1663
1643
1714
1693
1726
1721
1744
1825
1757
1728
1686
1647
1681
1607
1637
1639
1600
1646
1615
1654
1648
1629
1623
1535
1829
2559
2903
2099
1396
1415
1280
1328
1616
1619
1637
1653
1658
1719
1665
1712
1723
1711
1751
1724
1773
1777
1769
1824
1791
1844
1855
1825
1875
1821
1836
1835
1806
1845
1776
1787
1773
1722
1758
1702
1722
1725
1695
1733
1674
1731
1723
1707
1751
1711
1745
1755
1747
1792
1731
1774
1776
1759
1801
1760
1797
1797
1765
1814
1767
1796
1799
1778
1824
1779
1823
1837
1856
1906
1871
1966
1958
1901
1905
1856
1872
1845
1819
1855
1807
1856
1854
1840
1877
1841
1889
1822
1817
2235
3025
3210
2149
1647
1665
1507
1712
1890
1899
1937
1915
1973
1977
1966
2030
1991
2033
2055
2032
2091
2062
2114
2123
2128
2185
2149
2179
2169
2142
2175
2115
2135
2129
2082
2122
2064
2071
2042
2021
2064
1999
2032
2017
2009
2064
2007
2037
2054
2038
2070
2019
2082
2075
2027
2079
2035
2067
2055
2032
2073
2030
2059
2035
2017
2067
2019
2043
2038
2021
2063
2027
2106
2115
2079
2155
2149
2183
2126
2073
2096
2032
2057
2029
2019
2042
1994
2032
2021
2017
2063
1986
1958
2067
2651
3666
2878
1935
1715
1607
1759
1927
1997
1979
1974
2023
1980
2027
2026
2016
2057
2007
2064
2062
2045
2096
2064
2106
2113
2095
2130
2083
2112
2090
2064
2090
2028
2064
2007
1959
1983
1915
1941
1922
1887
1907
1867
1903
1902
1877
1913
1872
1909
1899
1886
1925
1887
1930
1917
1902
1930
1888
1920
1904
1876
1907
1858
1904
1879
1850
1895
1851
1889
1874
1854
1882
1834
1869
1872
1904
1949
1886
1989
1983
1950
1936
1851
1872
1840
1793
1829
1782
1817
1794
1790
1831
1776
1812
1761
1711
2035
2797
3205
2128
1555
1471
1407
1671
1769
1765
1796
1745
1793
1802
1798
1847
1797
1858
1843
1841
1890
1871
1920
1915
1909
1956
1927
1963
1945
1922
1943
1886
1920
1903
1859
1873
1807
1835
1797
1771
1791
1741
1783
1776
1763
1799
1759
1798
1783
1786
1821
1761
1819
1804
1799
1839
1799
1842
1838
1801
1836
1797
1830
1810
1801
1829
1786
1829
1808
1801
1837
1797
1831
1835
1849
1879
1840
1925
1936
1904
1894
1811
1819
1781
1761
1783
1744
1778
1765
1763
1783
1741
1779
1703
1648
1879
2547
3169
2270
1553
1495
1332
1535
1685
1691
1725
1682
1726
1706
1710
1758
1716
1756
1742
1733
1786
1759
1808
1805
1801
1855
1821
1840
1806
1799
1827
1754
1787
1762
1719
1728
1655
1683
1647
1614
1616
1559
1590
1535
1535
1592
1526
1581
1535
1535
1579
1527
1566
1535
1535
1577
1526
1569
1557
1535
1569
1515
1535
1532
1520
1535
1508
1566
1535
1531
1573
1533
1617
1616
1613
1693
1686
1716
1644
1610
1634
1584
1618
1605
1614
1643
1610
1663
1655
1664
1695
1630
1631
1822
2516
3008
2182
1535
1488
1391
1450
1619
1757
1741
1757
1817
1773
1825
1815
1824
1869
1845
1915
1898
1902
1949
1910
1975
1973
1966
2001
1959
1991
1957
1963
1977
1925
1947
1907
1887
1903
1841
1875
1840
1840
1869
1820
1869
1856
1847
1883
1847
1898
1869
1870
1903
1872
1899
1894
1884
1925
1882
1917
1888
1892
1926
1879
1905
1888
1895
1927
1885
1917
1901
1908
1963
1945
1995
2011
2032
2061
1962
1981
1930
1904
1923
1867
1904
1884
1879
1909
1869
1920
1898
1872
1871
2011
2752
3391
2524
1750
1630
1557
1590
1819
1913
1872
1936
1934
1939
1972
1934
1999
1987
2001
2037
2000
2054
2039
2064
2096
2073
2128
2096
2096
2122
2060
2101
2063
2064
2076
2003
2039
1991
1980
2015
1962
1995
1968
1968
1994
1938
1999
1979
1984
2026
1971
2016
2001
2000
2041
2000
2034
2013
2007
2027
1993
2035
2006
2001
2030
1979
2032
2006
1999
2032
1983
2071
2064
2063
2112
2089
2116
2059
2006
2021
1938
1970
1950
1940
1974
1922
1980
1950
1945
1989
1919
1914
2029
2654
3629
2768
1859
1646
1529
1726
1882
1964
1931
1922
1984
1941
1998
1983
1978
2013
1975
2032
2013
2030
2078
2043
2112
2086
2079
2122
2067
2101
2066
2039
2055
2000
2032
1983
1959
1974
1920
1924
1894
1886
1904
1863
1911
1872
1872
1911
1872
1919
1882
1887
1935
1871
1914
1891
1885
1915
1871
1915
1885
1886
1906
1858
1906
1889
1873
1895
1845
1896
1861
1861
1887
1874
1949
1910
1920
2003
1955
1965
1891
1866
1872
1805
1837
1808
1803
1815
1778
1834
1808
1808
1826
1734
1826
2278
3165
2896
1805
1532
1399
1511
1771
1769
1804
1781
1802
1835
1805
1854
1840
1856
1894
1853
1915
1893
1886
1937
1904
1957
1949
1953
1978
1920
1967
1926
1911
1931
1875
1893
1839
1823
1834
1778
1808
1769
1765
1789
1758
1793
1767
1771
1809
1771
1814
1781
1795
1818
1782
1819
1806
1794
1824
1781
1830
1791
1798
1813
1756
1808
1776
1759
1794
1747
1792
1756
1744
1776
1761
1841
1802
1807
1886
1849
1862
1763
1733
1742
1686
1723
1685
1680
1712
1658
1689
1670
1685
1706
1601
1673
2080
2915
2762
1692
1420
1334
1277
1520
1605
1648
1620
1622
1652
1626
1669
1651
1665
1710
1677
1711
1712
1722
1759
1725
1789
1762
1776
1811
1763
1790
1747
1746
1757
1707
1735
1693
1680
1680
1613
1648
1621
1615
1640
1602
1662
1620
1633
1670
1620
1664
1648
1645
1682
1649
1698
1657
1655
1699
1653
1709
1689
1688
1710
1662
1711
1683
1686
1730
1680
1717
1703
1712
1786
1744
1789
1831
1837
1840
1731
1762
1712
1702
1702
1648
1697
1673
1665
1699
1661
1715
1687
1653
1671
1953
2785
2937
1987
1455
1406
1329
1424
1647
1715
1677
1739
1734
1744
1781
1731
1790
1783
1798
1835
1799
1847
1842
1872
1920
1891
1952
1925
1917
1937
1894
1941
1903
1872
1900
1851
1885
1844
1814
1840
1797
1840
1825
1831
1859
1823
1872
1855
1856
1897
1857
1921
1905
1927
1958
1929
1981
1943
1952
1983
1937
1978
1955
1955
1987
1944
1997
1979
1984
2016
1951
2007
2002
2057
2112
2057
2160
2151
2123
2107
2030
2059
2022
2001
2006
1951
2010
1983
1983
2021
1975
2031
1939
1948
2320
3134
3456
2269
1745
1722
1577
1819
1956
1968
1998
1969
2032
2011
2011
2066
2022
2054
2046
2074
2105
2054
2122
2115
2127
2160
2117
2160
2125
2115
2129
2083
2112
2062
2056
2064
1995
2017
1968
1962
1985
1929
1969
1949
1937
1954
1927
1981
1954
1959
1996
1952
2000
1975
1978
2003
1957
2006
1981
1968
2000
1948
1980
1951
1948
1979
1933
1975
1945
1946
1974
1921
1983
1951
1945
1968
1921
1997
2010
1994
2047
2061
2091
2010
1967
1973
1905
1934
1905
1878
1909
1871
1906
1898
1882
1909
1856
1829
1965
2624
3489
2595
1787
1593
1460
1680
1833
1886
1857
1867
1887
1859
1905
1887
1889
1936
1888
1958
1946
1943
1995
1955
2006
2006
2000
2032
1991
2032
1989
1969
1991
1934
1954
1911
1889
1899
1810
1847
1822
1807
1837
1799
1849
1822
1805
1837
1799
1862
1854
1829
1869
1822
1857
1854
1856
1874
1825
1872
1854
1850
1887
1820
1871
1840
1835
1867
1812
1853
1840
1835
1851
1811
1843
1817
1815
1857
1803
1867
1895
1888
1915
1932
1977
1942
1875
1878
1815
1839
1792
1796
1835
1776
1824
1803
1799
1835
1776
1763
1727
2032
2869
3115
2101
1583
1468
1458
1643
1792
1771
1762
1803
1778
1828
1821
1811
1855
1837
1890
1872
1872
1915
1875
1943
1945
1936
1973
1935
1965
1931
1905
1930
1889
1917
1868
1856
1871
1799
1823
1790
1763
1791
1747
1776
1771
1759
1790
1754
1800
1778
1771
1808
1761
1808
1798
1793
1844
1797
1838
1825
1825
1867
1822
1857
1840
1840
1877
1826
1867
1841
1840
1870
1827
1861
1837
1825
1850
1808
1868
1872
1872
1883
1879
1961
1926
1858
1857
1791
1793
1761
1744
1791
1728
1757
1737
1714
1759
1721
1722
1648
1815
2529
3067
2295
1533
1443
1360
1406
1637
1666
1646
1694
1648
1699
1683
1681
1728
1687
1740
1726
1736
1778
1750
1808
1792
1787
1839
1801
1829
1799
1779
1811
1745
1778
1744
1719
1744
1683
1691
1663
1651
1679
1616
1665
1648
1642
1679
1645
1689
1670
1668
1704
1667
1712
1695
1695
1723
1680
1735
1712
1692
1730
1680
1712
1699
1689
1733
1697
1727
1717
1711
1741
1695
1743
1723
1710
1749
1712
1804
1779
1770
1861
1839
1856
1808
1757
1759
1711
1741
1723
1705
1739
1687
1733
1733
1719
1763
1661
1672
1957
2720
3081
2106
1519
1489
1362
1479
1649
1746
1731
1723
1782
1747
1801
1791
1776
1830
1798
1853
1846
1845
1899
1873
1930
1925
1921
1970
1913
1949
1906
1878
1917
1869
1899
1869
1840
1863
1805
1840
1822
1799
1837
1797
1838
1821
1814
1858
1819
1872
1849
1843
1907
1861
1904
1901
1887
1931
1889
1935
1910
1903
1953
1910
1958
1933
1920
1968
1914
1959
1954
1938
1978
1936
1978
2009
2032
2073
2061
2150
2120
2076
2061
1996
2006
1978
1954
2005
1936
1978
1969
1966
2000
1961
1982
1895
2021
2678
3507
2837
1867
1694
1641
1633
1888
1965
1949
1982
1962
2025
2006
2006
2054
2009
2069
2060
2064
2122
2075
2135
2131
2134
2163
2130
2166
2129
2107
2158
2071
2096
2071
2047
2067
1995
2006
1978
1946
1979
1947
1978
1959
1936
1977
1927
1973
1969
1961
1999
1950
1984
1989
1977
2007
1963
2000
1998
1973
2000
1947
1983
1969
1952
1985
1950
1968
1959
1936
1977
1922
1966
1947
1930
1969
1950
2025
2011
1995
2091
2025
2027
1968
1929
1931
1881
1898
1891
1869
1902
1842
1886
1878
1871
1899
1783
1879
2359
3273
2950
1856
1608
1488
1532
1809
1831
1866
1856
1846
1902
1850
1901
1893
1891
1938
1914
1959
1959
1953
2018
1984
2017
2029
2005
2055
2000
2030
1998
1973
2000
1939
1954
1923
1879
1904
1849
1859
1845
1816
1854
1793
1827
1814
1813
1865
1825
1862
1862
1837
1870
1827
1879
1867
1845
1898
1855
1881
1869
1840
1899
1840
1873
1858
1834
1884
1845
1856
1846
1840
1874
1829
1877
1903
1911
1944
1911
1995
1968
1920
1918
1851
1855
1840
1804
1855
1794
1827
1817
1805
1855
1802
1819
1741
1802
2379
3229
2786
1767
1506
1445
1512
1754
1796
1774
1820
1783
1826
1839
1824
1869
1833
1874
1872
1870
1918
1882
1936
1950
1938
1990
1955
1982
1963
1919
1962
1911
1936
1919
1870
1901
1837
1847
1811
1769
1813
1758
1791
1778
1759
1806
1775
1808
1813
1787
1822
1779
1833
1825
1808
1842
1798
1834
1826
1794
1841
1803
1824
1808
1778
1819
1786
1791
1799
1781
1811
1742
1775
1779
1790
1840
1783
1847
1874
1837
1839
1749
1756
1740
1691
1718
1666
1694
1698
1655
1707
1675
1699
1657
1589
1815
2443
3061
2249
1457
1424
1247
1392
1602
1613
1642
1615
1655
1662
1648
1687
1654
1682
1699
1680
1728
1706
1750
1755
1747
1808
1779
1806
1797
1772
1798
1749
1776
1749
1712
1748
1682
1680
1663
1621
1664
1616
1643
1648
1629
1663
1630
1661
1662
1645
1684
1665
1685
1680
1663
1709
1662
1687
1685
1662
1715
1682
1708
1695
1667
1718
1663
1695
1696
1663
1710
1667
1713
1760
1744
1782
1779
1841
1829
1760
1770
1712
1725
1711
1671
1714
1680
1709
1698
1685
1738
1680
1686
1648
1850
2617
3045
2256
1509
1450
1396
1384
1663
1744
1700
1747
1735
1788
1795
1780
1835
1807
1841
1855
1827
1891
1861
1903
1920
1915
1969
1921
1952
1949
1910
1956
1915
1931
1920
1874
1915
1856
1871
1855
1824
1870
1831
1860
1875
1843
1903
1856
1889
1905
1881
1938
1901
1939
1947
1926
1987
1941
1969
1972
1943
1982
1944
1967
1978
1958
2024
1971
1994
2015
1985
2022
1985
2047
2089
2058
2135
2137
2139
2096
2025
2053
1988
1994
1995
1954
2007
1964
1994
1999
1977
2023
1969
1926
2102
2711
3625
2735
1841
1728
1595
1723
1914
1997
2005
1995
2043
2007
2047
2071
2043
2101
2083
2119
2129
2097
2162
2149
2177
2195
2163
2221
2174
2183
2176
2128
2157
2109
2114
2110
2047
2089
2019
2016
2015
1982
2015
1981
1997
2000
1966
2026
1977
2000
2015
1991
2025
1979
2006
2024
1998
2035
1983
2007
2023
1969
2001
1968
1980
1984
1951
1995
1953
1975
1987
1949
1986
1943
1973
2027
2000
2030
2035
2076
2077
2005
2003
1936
1923
1919
1872
1909
1866
1873
1895
1855
1915
1872
1846
1814
1936
2661
3391
2549
1727
1508
1463
1619
1813
1845
1808
1856
1834
1860
1886
1844
1893
1858
1898
1923
1895
1967
1926
1961
1994
1973
2023
1990
1987
1991
1937
1971
1929
1932
1927
1872
1899
1843
1815
1826
1781
1799
1761
1775
1794
1771
1808
1781
1806
1824
1792
1841
1807
1819
1838
1801
1842
1806
1823
1854
1814
1851
1822
1837
1841
1804
1849
1811
1819
1854
1815
1842
1809
1823
1832
1818
1903
1855
1872
1953
1908
1923
1842
1835
1820
1763
1805
1764
1758
1790
1753
1796
1771
1779
1795
1694
1774
2179
3063
2909
1815
1535
1399
1456
1705
1725
1776
1743
1762
1803
1772
1833
1808
1812
1847
1823
1875
1846
1872
1901
1872
1933
1911
1922
1941
1887
1923
1872
1870
1879
1825
1840
1776
1770
1774
1705
1728
1697
1702
1719
1680
1719
1675
1682
1713
1663
1716
1693
1704
1741
1691
1721
1686
1712
1726
1680
1728
1698
1693
1705
1654
1710
1682
1681
1709
1651
1697
1665
1663
1681
1633
1711
1712
1712
1759
1762
1808
1749
1701
1699
1635
1677
1634
1629
1658
1615
1641
1618
1630
1662
1613
1606
1616
2026
2863
2671
1757
1369
1368
1277
1392
1616
1620
1613
1660
1631
1690
1661
1669
1718
1682
1734
1710
1728
1785
1745
1813
1807
1795
1853
1817
1851
1794
1786
1815
1776
1809
1773
1738
1750
1695
1712
1681
1665
1695
1648
1695
1675
1682
1714
1662
1715
1699
1702
1755
1693
1744
1734
1739
1771
1738
1776
1750
1760
1791
1741
1783
1755
1754
1803
1744
1794
1766
1774
1836
1834
1874
1861
1931
1968
1885
1883
1840
1823
1833
1771
1828
1806
1806
1842
1803
1857
1840
1840
1824
1802
2194
3008
3138
2145
1601
1628
1493
1655
1872
1860
1910
1891
1904
1965
1936
1987
1973
1977
2032
2002
2061
2059
2062
2101
2071
2128
2118
2115
2159
2090
2118
2109
2080
2104
2039
2068
2022
1999
2031
1969
2013
1979
1969
2007
1968
2011
1984
1987
2039
1970
2018
2009
2005
2060
1995
2042
2042
2027
2060
2006
2045
2032
2021
2063
1998
2038
2025
2006
2064
2007
2064
2026
2018
2058
2031
2116
2096
2093
2167
2113
2119
2064
2018
2034
1971
1979
1967
1941
1983
1939
1969
1969
1952
1984
1877
1999
2516
3445
3025
1904
1680
1570
1585
1872
1895
1920
1921
1919
1969
1939
1980
1968
1961
2006
1973
2022
2029
2013
2066
2030
2080
2087
2067
2111
2029
2047
2026
2002
2038
1979
1990
1965
1911
1951
1873
1895
1872
1844
1881
1828
1875
1865
1849
1897
1847
1890
1892
1878
1923
1875
1905
1906
1883
1914
1873
1921
1905
1872
1922
1877
1898
1877
1858
1906
1847
1890
1879
1855
1895
1856
1875
1885
1911
1958
1890
1959
1974
1945
1934
1846
1863
1856
1807
1839
1794
1822
1808
1789
1818
1789
1825
1781
1721
1951
2595
3283
2406
1619
1556
1386
1573
1775
1775
1791
1766
1822
1823
1808
1855
1806
1854
1875
1853
1922
1871
1913
1941
1931
1981
1957
1990
1973
1936
1978
1927
1941
1936
1887
1918
1850
1847
1842
1804
1818
1777
1799
1807
1791
1826
1785
1827
1840
1801
1856
1830
1852
1858
1829
1868
1834
1869
1859
1840
1889
1840
1873
1867
1840
1879
1845
1855
1872
1840
1872
1840
1866
1861
1840
1870
1839
1898
1927
1894
1938
1964
1971
1970
1898
1904
1841
1853
1840
1808
1859
1805
1824
1843
1806
1849
1809
1777
1792
2095
2992
3136
2065
1597
1467
1498
1680
1808
1808
1776
1843
1814
1837
1857
1831
1872
1850
1893
1902
1889
1943
1907
1945
1974
1942
2005
1958
1967
1968
1920
1935
1893
1905
1882
1827
1851
1776
1790
1789
1744
1769
1725
1741
1759
1726
1767
1729
1742
1749
1729
1775
1727
1759
1769
1725
1778
1745
1743
1773
1728
1744
1719
1736
1730
1696
1744
1697
1727
1737
1678
1727
1693
1713
1744
1724
1775
1737
1820
1841
1757
1755
1703
1691
1681
1639
1665
1621
1647
1649
1610
1666
1633
1663
1632
1524
1809
2478
2931
2146
1397
1398
1249
1338
1571
1590
1643
1616
1636
1648
1633
1680
1648
1671
1709
1679
1739
1719
1747
1782
1758
1805
1763
1792
1815
1779
1809
1776
1787
1783
1737
1758
1702
1704
1711
1657
1692
1650
1673
1685
1643
1697
1658
1675
1710
1655
1713
1685
1709
1739
1705
1744
1712
1731
1759
1713
1758
1728
1737
1751
1708
1757
1726
1744
1772
1728
1781
1735
1741
1775
1772
1840
1802
1862
1915
1857
1856
1794
1787
1791
1737
1777
1742
1744
1786
1744
1798
1754
1767
1758
1685
1974
2672
3187
2367
1565
1535
1407
1479
1740
1754
1792
1785
1817
1856
1811
1889
1871
1886
1931
1888
1941
1925
1968
1999
1968
2032
2014
2032
2061
2011
2045
2007
2001
2037
1969
2002
1966
1954
1968
1920
1954
1920
1920
1947
1917
1966
1927
1949
1979
1945
2001
1975
1973
2010
1986
2037
2002
2023
2047
1991
2032
2011
2013
2039
1995
2046
2015
2006
2035
2001
2055
1997
2013
2075
2047
2103
2111
2149
2165
2078
2074
2032
2011
2020
1959
2001
1970
1979
2000
1948
2000
1978
1963
1937
2020
2657
3547
2896
1927
1679
1617
1643
1881
1982
1921
1984
1969
1991
2013
1970
2030
2017
2022
2070
2032
2096
2080
2096
2145
2094
2145
2113
2109
2138
2085
2113
2075
2046
2070
2000
2029
1984
1953
1981
1930
1953
1936
1923
1965
1905
1959
1939
1936
1972
1930
1968
1950
1947
1984
1943
1979
1959
1959
1983
1930
1968
1956
1948
1969
1927
1964
1941
1936
1975
1923
1971
1957
1918
1957
1920
1999
1993
1987
2078
2026
2055
1987
1952
1955
1875
1909
1879
1867
1904
1867
1893
1880
1891
1913
1815
1840
2079
2838
3374
2265
1687
1535
1451
1728
1814
1853
1838
1837
1878
1855
1875
1858
1859
1904
1879
1933
1926
1927
1983
1938
1998
1981
1979
2015
1959
1990
1968
1939
1968
1906
1919
1885
1860
1861
1792
1803
1779
1776
1795
1758
1793
1776
1769
1808
1763
1809
1801
1791
1837
1778
1818
1813
1812
1854
1807
1840
1822
1808
1847
1797
1821
1822
1799
1843
1795
1837
1825
1808
1841
1787
1830
1817
1801
1861
1867
1898
1885
1936
1957
1884
1863
1834
1793
1824
1776
1796
1778
1767
1805
1770
1803
1786
1770
1744
1744
2231
3107
2889
1877
1509
1422
1463
1674
1791
1728
1769
1780
1775
1830
1798
1819
1824
1824
1872
1839
1882
1892
1889
1937
1904
1953
1955
1936
1954
1906
1936
1904
1870
1899
1843
1866
1838
1808
1839
1773
1785
1786
1773
1809
1761
1798
1791
1776
1809
1776
1809
1806
1790
1827
1778
1810
1796
1776
1819
1777
1802
1783
1766
1813
1761
1789
1778
1751
1783
1744
1776
1766
1743
1787
1732
1763
1791
1797
1808
1808
1867
1851
1782
1776
1714
1725
1691
1674
1707
1650
1681
1666
1646
1701
1648
1660
1590
1719
2368
2990
2367
1533
1390
1339
1295
1535
1627
1606
1658
1634
1664
1675
1643
1696
1680
1715
1703
1687
1746
1713
1780
1794
1776
1830
1792
1809
1806
1767
1806
1741
1759
1748
1712
1742
1678
1701
1683
1637
1679
1635
1671
1681
1645
1686
1648
1691
1695
1670
1715
1683
1725
1714
1689
1739
1711
1754
1747
1718
1757
1714
1743
1738
1714
1761
1714
1739
1739
1707
1760
1724
1786
1813
1776
1877
1841
1863
1811
1744
1787
1730
1744
1745
1712
1766
1726
1745
1749
1727
1781
1712
1700
1914
2559
3196
2343
1591
1521
1405
1463
1664
1781
1791
1776
1839
1815
1842
1868
1856
1913
1885
1922
1943
1920
1981
1949
1994
2023
1996
2064
2007
2015
2023
1984
2032
1974
1997
1983
1935
1984
1918
1933
1952
1910
1951
1920
1938
1947
1923
1984
1936
1969
1989
1949
2006
1986
2002
2013
1990
2033
1993
2000
2021
1997
2034
1998
2010
2029
1990
2032
1986
2011
2024
1984
2032
1989
2032
2085
2069
2115
2113
2159
2147
2059
2065
1998
2006
2000
1951
2001
1962
1971
1983
1958
2002
1959
1936
1915
2111
2909
3482
2496
1783
1661
1599
1711
1905
1955
1910
1966
1946
1973
2000
1967
2026
2009
2010
2037
2027
2087
2047
2087
2107
2091
2145
2106
2106
2111
2063
2100
2046
2062
2043
1984
2011
1964
1941
1955
1904
1945
1904
1920
1930
1901
1937
1906
1936
1951
1923
1979
1936
1955
1971
1937
1990
1965
1969
1967
1924
1979
1942
1945
1946
1915
1968
1933
1939
1963
1920
1952
1923
1922
1963
1957
2022
1979
2032
2077
2032
2037
1949
1927
1934
1872
1904
1862
1873
1904
1854
1903
1872
1891
1883
1760
1958
2595
3383
2606
1712
1585
1435
1630
1840
1805
1856
1835
1842
1872
1842
1891
1869
1885
1925
1889
1947
1920
1943
1984
1959
2013
1983
1995
2000
1948
1991
1929
1936
1949
1891
1898
1854
1851
1842
1782
1808
1782
1782
1795
1758
1810
1773
1793
1818
1782
1835
1809
1825
1835
1807
1850
1814
1818
1853
1811
1855
1838
1838
1841
1799
1840
1813
1823
1849
1799
1842
1812
1826
1840
1794
1840
1829
1870
1914
1846
1922
1941
1937
1909
1818
1843
1809
1785
1808
1760
1801
1770
1770
1791
1767
1808
1761
1692
1861
2459
3266
2471
1648
1513
1360
1577
1729
1744
1774
1735
1798
1778
1795
1829
1787
1838
1814
1833
1863
1835
1891
1873
1894
1942
1904
1949
1916
1893
1908
1856
1887
1854
1840
1835
1775
1801
1751
1730
1744
1682
1722
1711
1712
1728
1682
1744
1712
1702
1738
1703
1747
1714
1714
1755
1697
1743
1734
1722
1744
1701
1741
1701
1702
1727
1691
1728
1697
1683
1728
1673
1715
1680
1671
1714
1705
1770
1727
1770
1839
1778
1765
1703
1675
1682
1617
1666
1627
1611
1651
1616
1659
1642
1634
1647
1555
1763
2371
2963
2305
1453
1407
1287
1285
1566
1606
1648
1631
1627
1696
1655
1700
1673
1680
1727
1694
1744
1741
1747
1803
1766
1825
1819
1821
1855
1791
1840
1814
1795
1813
1751
1783
1744
1723
1750
1680
1714
1686
1677
1725
1675
1719
1691
1696
1745
1693
1729
1728
1717
1762
1728
1761
1747
1744
1787
1733
1778
1754
1741
1786
1744
1777
1758
1745
1783
1741
1779
1769
1778
1845
1810
1859
1894
1913
1920
1818
1829
1797
1766
1792
1749
1795
1782
1773
1801
1767
1822
1809
1757
1772
2000
2803
3195
2254
1627
1535
1471
1535
1746
1849
1805
1862
1873
1870
1923
1883
1947
1931
1927
1980
1946
2004
2011
2013
2075
2034
2080
2081
2064
2100
2030
2062
2043
2022
2038
1975
2005
1983
1946
1979
1922
1963
1954
1920
1982
1938
1958
1950
1958
2007
1971
1989
1995
1983
2032
2000
2033
2017
1990
2027
1986
2026
2007
2000
2035
1984
2023
2002
1993
2031
1969
2007
2003
2020
2106
2043
2112
2138
2112
2119
2006
2025
2005
1961
1993
1952
1990
1971
1939
1996
1953
1968
1967
1895
2075
2614
3568
2858
1856
1706
1535
1665
1879
1920
1962
1921
1947
1965
1965
2017
1969
2011
2015
1999
2047
2025
2064
2077
2071
2115
2069
2112
2100
2073
2097
2030
2053
2034
1996
2022
1961
1967
1947
1895
1937
1891
1911
1906
1872
1914
1879
1911
1926
1892
1951
1907
1934
1933
1911
1957
1909
1936
1930
1914
1971
1915
1936
1931
1909
1943
1899
1925
1919
1898
1932
1901
1939
1933
1904
1962
1961
2006
1986
2013
2067
2005
1985
1959
1904
1923
1872
1891
1893
1861
1904
1856
1873
1883
1866
1874
1760
1984
2698
3377
2480
1652
1535
1452
1628
1839
1808
1827
1838
1823
1879
1845
1872
1872
1849
1904
1885
1907
1934
1918
1968
1943
1983
2005
1978
2010
1946
1951
1953
1917
1941
1889
1895
1863
1823
1837
1789
1795
1789
1743
1808
1763
1794
1819
1766
1813
1795
1829
1835
1808
1872
1815
1855
1857
1809
1872
1832
1855
1862
1830
1858
1837
1853
1858
1832
1877
1829
1842
1863
1823
1881
1818
1821
1857
1872
1939
1890
1951
1984
1949
1942
1855
1869
1852
1799
1840
1787
1798
1813
1787
1840
1798
1808
1798
1712
1872
2435
3264
2605
1674
1563
1393
1535
1773
1759
1790
1773
1794
1811
1790
1856
1816
1852
1878
1842
1920
1882
1897
1933
1911
1970
1947
1968
1969
1936
1970
1904
1915
1925
1879
1889
1837
1834
1834
1773
1803
1767
1776
1781
1758
1797
1774
1788
1795
1755
1811
1792
1802
1831
1801
1836
1810
1838
1839
1808
1855
1809
1830
1840
1797
1845
1799
1818
1842
1807
1840
1809
1812
1827
1795
1842
1791
1840
1885
1839
1904
1913
1917
1904
1817
1830
1771
1774
1764
1735
1779
1727
1760
1765
1711
1766
1734
1675
1750
2192
3086
2731
1718
1487
1373
1400
1599
1698
1709
1680
1740
1714
1733
1745
1718
1789
1744
1756
1776
1760
1821
1792
1815
1853
1823
1870
1840
1842
1845
1783
1821
1785
1763
1755
1703
1734
1682
1671
1681
1632
1665
1630
1642
1663
1629
1674
1650
1666
1683
1648
1696
1657
1658
1683
1646
1695
1649
1671
1692
1648
1699
1668
1666
1690
1655
1702
1673
1671
1691
1655
1701
1675
1677
1726
1719
1766
1724
1817
1854
1759
1748
1703
1689
1702
1648
1696
1648
1654
1684
1653
1712
1681
1680
1639
1628
2047
2845
2865
1927
1411
1470
1315
1450
1677
1664
1711
1700
1730
1744
1707
1773
1760
1767
1801
1762
1821
1818
1836
1869
1840
1920
1898
1876
1901
1870
1892
1854
1863
1875
1810
1849
1801
1788
1807
1751
1808
1772
1778
1801
1757
1820
1795
1799
1838
1808
1870
1835
1847
1883
1840
1907
1887
1903
1931
1878
1921
1906
1906
1939
1904
1949
1917
1933
1969
1931
1975
1930
1939
2000
2000
2043
2045
2101
2128
2047
2055
1997
1986
2000
1936
1975
1950
1955
1984
1946
1983
1969
1971
1931
1968
2543
3459
3009
1984
1680
1678
1584
1815
1981
1939
1995
1979
1997
2041
1999
2053
2023
2034
2087
2044
2109
2096
2096
2155
2125
2170
2149
2145
2167
2103
2145
2110
2091
2118
2038
2064
2025
2014
2028
1963
2000
1965
1968
1997
1941
1989
1977
1961
2000
1966
2013
1997
1984
2013
1985
2032
2000
1985
2021
1976
2018
1978
1970
2007
1963
1999
1979
1968
1997
1951
1984
1963
1945
1983
1968
2045
2022
2011
2113
2064
2064
1997
1963
1971
1911
1936
1909
1903
1925
1872
1904
1894
1895
1921
1808
1875
2245
3107
3248
2065
1649
1532
1488
1759
1847
1880
1851
1857
1910
1873
1929
1908
1911
1967
1934
1983
1974
1981
2023
1997
2057
2055
2032
2074
2025
2047
2014
1998
2017
1968
1984
1949
1913
1932
1855
1889
1872
1843
1877
1839
1874
1853
1839
1872
1821
1872
1872
1855
1890
1845
1883
1877
1872
1903
1860
1895
1875
1857
1895
1853
1903
1885
1854
1880
1842
1903
1888
1861
1903
1861
1890
1873
1878
1963
1914
1945
2000
1975
1998
1904
1919
1872
1843
1857
1818
1855
1836
1819
1844
1799
1845
1839
1776
1795
2066
2945
3203
2089
1604
1456
1457
1682
1778
1808
1767
1826
1833
1823
1872
1828
1870
1872
1863
1904
1876
1923
1936
1927
1982
1962
1996
1978
1954
1993
1929
1936
1910
1889
1918
1843
1850
1818
1787
1810
1773
1785
1759
1745
1795
1744
1778
1763
1761
1815
1776
1815
1813
1798
1847
1799
1834
1827
1796
1842
1794
1832
1828
1810
1849
1802
1838
1831
1802
1827
1792
1826
1826
1793
1844
1795
1831
1838
1853
1919
1872
1909
1966
1949
1959
1869
1872
1840
1797
1821
1776
1808
1799
1776
1823
1786
1830
1802
1709
1791
2191
3120
2895
1824
1568
1410
1479
1711
1759
1793
1751
1795
1795
1787
1840
1789
1827
1835
1807
1872
1844
1884
1894
1903
1953
1914
1951
1942
1903
1922
1863
1872
1870
1835
1846
1782
1776
1763
1727
1751
1683
1701
1700
1680
1726
1683
1707
1703
1682
1739
1680
1723
1712
1697
1737
1683
1718
1721
1710
1727
1680
1701
1691
1673
1723
1680
1703
1701
1664
1712
1675
1699
1692
1667
1712
1657
1698
1745
1735
1751
1744
1821
1810
1739
1744
1675
1690
1673
1646
1677
1622
1666
1664
1626
1676
1631
1643
1586
1708
2367
2996
2377
1520
1379
1350
1270
1511
1630
1608
1661
1631
1664
1680
1649
1719
1683
1734
1742
1717
1791
1767
1789
1819
1818
1862
1829
1845
1844
1814
1856
1792
1819
1809
1759
1792
1709
1728
1719
1683
1735
1682
1712
1712
1691
1744
1705
1742
1730
1725
1778
1721
1749
1758
1743
1798
1762
1787
1789
1749
1808
1751
1780
1790
1759
1799
1747
1763
1773
1745
1808
1767
1811
1856
1841
1893
1899
1934
1919
1811
1843
1792
1803
1782
1771
1834
1785
1805
1818
1788
1845
1805
1773
1827
2256
3184
2921
1925
1601
1532
1488
1634
1831
1855
1820
1902
1862
1906
1936
1908
1961
1927
1980
1999
1970
2029
1999
2043
2079
2053
2114
2074
2095
2108
2063
2096
2047
2064
2064
2000
2033
1978
1985
1996
1963
1985
1951
1981
1982
1958
2016
1969
1998
2018
1987
2035
2003
2018
2038
2017
2058
2018
2035
2047
2017
2064
2015
2042
2043
2001
2064
2013
2032
2035
2009
2084
2067
2102
2119
2128
2181
2107
2065
2059
2000
2032
1970
1993
1999
1958
2000
1968
1982
1990
1949
1942
1951
2421
3393
3148
2073
1667
1595
1599
1802
1954
1906
1922
1952
1920
1984
1949
1974
1991
1962
2022
1999
2026
2057
2030
2098
2089
2104
2111
2089
2128
2072
2081
2079
2027
2070
2009
2009
1995
1941
1974
1939
1945
1951
1895
1949
1920
1937
1951
1914
1968
1936
1955
1970
1938
1984
1955
1980
1988
1947
1997
1949
1966
1985
1936
1975
1951
1959
1975
1951
1984
1936
1955
1979
1981
2058
1990
2047
2096
2037
2039
1958
1964
1939
1883
1925
1863
1870
1886
1856
1901
1862
1869
1849
1765
1973
2590
3408
2597
1686
1535
1416
1627
1824
1798
1839
1809
1839
1863
1830
1885
1864
1881
1887
1857
1916
1902
1927
1951
1950
1990
1965
1978
1984
1940
1969
1920
1921
1935
1867
1888
1822
1827
1811
1762
1791
1746
1756
1765
1742
1786
1750
1770
1792
1764
1815
1772
1787
1808
1786
1828
1789
1810
