ecg_value
1841
1806
1827
1855
1918
1947
1950
1988
2082
2069
2064
2061
2038
1983
1955
1872
1810
1839
1773
1737
1764
1799
1789
1756
1729
1744
1787
1829
1872
1904
1902
1934
1952
1858
1796
1825
1776
1730
1715
1731
1734
1712
1701
1714
1793
1761
1677
1933
2690
2627
1793
1446
1363
1328
1484
1631
1735
1783
1822
1854
1869
1895
1941
1920
1949
1991
2010
2045
2113
2138
2160
2175
2160
2138
2118
2064
2000
1959
1919
1915
1918
1862
1862
1889
1877
1863
1929
1933
1946
1984
2015
2055
2064
1994
1948
1947
1901
1849
1846
1835
1837
1840
1818
1827
1808
1838
1783
1885
2612
3008
2179
1597
1502
1396
1531
1693
1809
1849
1855
1892
1911
1936
1968
1981
1979
2005
2053
2106
2165
2156
2158
2207
2209
2167
2131
2068
2016
1985
1947
1898
1890
1872
1855
1856
1856
1862
1869
1855
1874
1909
1933
1940
1969
1968
1955
1913
1872
1855
1842
1808
1774
1790
1781
1766
1781
1776
1803
1808
1755
2249
2987
2449
1734
1519
1360
1456
1645
1765
1795
1810
1840
1845
1871
1872
1888
1888
1922
1952
1978
2011
2056
2065
2085
2081
2065
2033
2000
1950
1902
1861
1821
1797
1791
1777
1787
1791
1789
1807
1804
1803
1813
1835
1866
1872
1897
1907
1897
1872
1822
1808
1782
1745
1729
1719
1701
1709
1722
1712
1735
1715
1671
2141
2927
2491
1745
1475
1312
1408
1585
1693
1740
1759
1781
1809
1834
1842
1872
1879
1911
1954
1986
2041
2093
2097
2095
2099
2095
2055
2000
1968
1918
1872
1839
1808
1805
1805
1801
1794
1804
1808
1796
1792
1808
1841
1861
1873
1901
1905
1911
1858
1811
1810
1790
1751
1737
1749
1738
1734
1733
1730
1764
1737
1713
2274
2960
2372
1691
1481
1344
1451
1627
1739
1785
1799
1809
1826
1851
1875
1895
1919
1936
1968
2011
2058
2086
2102
2117
2127
2103
2080
2047
2010
1959
1904
1856
1830
1828
1846
1874
1869
1851
1840
1821
1839
1858
1895
1904
1925
1941
1927
1921
1867
1842
1824
1793
1773
1754
1744
1735
1743
1749
1746
1776
1738
1868
2559
2797
2003
1493
1419
1316
1471
1655
1780
1780
1783
1808
1843
1871
1879
1885
1919
1985
2013
2015
2039
2101
2129
2145
2112
2112
2095
2032
1975
1923
1897
1870
1823
1828
1815
1790
1819
1824
1819
1838
1856
1882
1907
1945
1957
1924
1887
1841
1819
1757
1735
1750
1726
1705
1743
1743
1722
1721
1728
1710
2149
2890
2350
1629
1456
1355
1313
1535
1702
1783
1789
1808
1843
1872
1885
1883
1914
1929
1970
2021
2057
2096
2128
2130
2129
2152
2124
2063
2003
1998
1981
1911
1872
1869
1855
1872
1869
1870
1901
1921
1954
1980
1989
2062
2061
2029
1991
1935
1925
1883
1850
1851
1856
1839
1820
1828
1834
1861
1853
1857
2375
2993
2339
1664
1568
1427
1493
1706
1841
1904
1920
1938
1949
1975
2007
2029
2059
2078
2108
2145
2180
2209
2225
2236
2239
2215
2183
2154
2117
2080
2029
1999
1983
1965
1938
1932
1936
1948
1953
1987
2027
2037
2074
2094
2081
2031
1990
1963
1925
1878
1871
1865
1871
1861
1849
1846
1859
1891
1813
2101
2941
2770
1878
1561
1423
1438
1648
1808
1861
1872
1893
1910
1935
1942
1970
1983
2003
2033
2091
2133
2162
2174
2188
2195
2181
2164
2128
2102
2054
2007
1974
1955
1939
1932
1936
1927
1934
1948
1945
1948
1949
2005
2018
2025
2059
2058
2054
1991
1968
1949
1904
1890
1887
1871
1863
1861
1867
1872
1904
1854
1885
2543
3061
2355
1728
1535
1440
1616
1765
1860
1891
1917
1935
1958
1979
1995
2004
2031
2076
2106
2128
2162
2187
2203
2224
2221
2208
2176
2125
2079
2037
1997
1957
1927
1917
1913
1904
1913
1915
1913
1899
1883
1873
1913
1931
1933
1963
1979
1987
1942
1881
1849
1808
1787
1788
1791
1776
1750
1739
1738
1769
1734
1733
2301
2911
2267
1606
1396
1281
1438
1584
1668
1715
1728
1744
1775
1776
1789
1793
1818
1846
1885
1921
1951
1975
2000
2005
2001
2007
1974
1936
1894
1859
1841
1817
1766
1744
1741
1766
1761
1751
1771
1785
1773
1771
1797
1806
1817
1867
1933
1904
1897
1886
1845
1814
1781
1780
1759
1762
1785
1792
1772
1755
1799
1799
1809
2352
2958
2271
1611
1519
1389
1486
1695
1808
1888
1915
1923
1922
1985
2002
2030
2061
2101
2129
2160
2204
2224
2257
2260
2289
2297
2288
2276
2244
2209
2203
2191
2126
2122
2112
2128
2128
2126
2129
2113
2131
2165
2171
2179
2205
2237
2223
2174
2079
2063
2057
2016
1972
1963
1931
1923
1919
1901
1896
1917
1862
1979
2640
2917
2043
1581
1535
1390
1506
1695
1787
1840
1855
1882
1872
1877
1891
1897
1923
1952
1950
1970
2037
2070
2081
2081
2097
2096
2063
2055
2017
1958
1891
1855
1815
1792
1773
1756
1769
1766
1759
1744
1773
1807
1792
1808
1840
1813
1775
1717
1663
1635
1595
1574
1535
1525
1529
1514
1508
1503
1530
1471
1599
2322
2519
1693
1194
1111
1017
1203
1349
1454
1488
1519
1535
1559
1586
1600
1612
1631
1676
1706
1737
1774
1814
1851
1829
1814
1813
1794
1760
1707
1662
1633
1612
1584
1566
1570
1590
1594
1612
1619
1616
1641
1680
1694
1699
1750
1750
1722
1670
1628
1632
1616
1573
1535
1535
1535
1535
1563
1562
1589
1599
1535
1969
2719
2256
1507
1317
1186
1269
1456
1594
1649
1662
1685
1715
1746
1774
1789
1812
1841
1873
1904
1949
1979
2021
2027
2018
2013
1981
1941
1902
1854
1815
1770
1749
1739
1727
1718
1728
1734
1743
1741
1723
1712
1713
1749
1776
1776
1819
1821
1810
1759
1729
1714
1680
1654
1635
1629
1625
1637
1631
1629
1655
1667
1611
2031
2785
2369
1648
1397
1219
1322
1517
1642
1699
1725
1744
1765
1793
1808
1823
1843
1875
1917
1955
1977
2013
2032
2045
2064
2058
2031
1992
1952
1903
1867
1838
1813
1801
1791
1776
1793
1797
1815
1835
1838
1830
1810
1803
1829
1854
1875
1884
1918
1909
1935
1872
1840
1828
1795
1776
1781
1776
1753
1761
1773
1767
1797
1776
1745
2237
2897
2352
1659
1472
1340
1462
1636
1745
1817
1840
1869
1894
1918
1941
1952
1980
2014
2043
2084
2125
2169
2227
2217
2223
2237
2205
2158
2116
2086
2038
2014
1972
1967
1961
1927
1963
1945
1955
1968
1965
1965
1968
1945
1981
2014
2030
2062
2122
2097
2066
2019
1985
1986
1934
1909
1907
1899
1906
1922
1920
1891
1923
1897
1913
2432
3056
2334
1710
1637
1487
1523
1775
1879
1933
1936
1990
2005
2014
2033
2064
2059
2101
2119
2154
2166
2227
2239
2269
2254
2251
2230
2174
2150
2097
2063
2010
1970
1952
1941
1941
1946
1967
1939
1959
1953
1941
1971
2025
2065
2039
2091
2107
2062
2022
1975
1936
1904
1886
1887
1872
1853
1847
1855
1847
1869
1855
1855
2257
2981
2427
1675
1535
1442
1447
1662
1785
1842
1911
1904
1899
1937
1943
1970
1970
1974
2005
2041
2094
2130
2146
2155
2155
2159
2126
2089
2006
1967
1946
1909
1872
1831
1827
1830
1815
1810
1840
1838
1827
1828
1867
1903
1921
1962
1983
1943
1895
1826
1815
1811
1777
1743
1730
1719
1712
1712
1731
1744
1775
1702
1914
2692
2637
1791
1444
1360
1273
1489
1658
1750
1776
1779
1808
1837
1840
1863
1882
1895
1904
1939
1985
2023
2062
2071
2078
2069
2038
1997
1973
1936
1867
1811
1781
1776
1772
1751
1756
1775
1774
1765
1742
1763
1769
1767
1783
1811
1841
1856
1853
1840
1799
1746
1741
1707
1662
1670
1657
1645
1648
1648
1642
1663
1685
1602
1933
2725
2422
1643
1382
1237
1271
1485
1612
1665
1694
1710
1731
1764
1776
1790
1819
1830
1856
1877
1930
1968
1995
2021
2032
2032
2005
1963
1907
1872
1840
1808
1774
1744
1741
1736
1744
1745
1743
1754
1767
1773
1754
1743
1750
1760
1793
1840
1841
1859
1863
1861
1825
1776
1759
1735
1714
1722
1717
1712
1704
1691
1699
1729
1729
1651
2015
2800
2468
1730
1469
1296
1338
1532
1671
1722
1744
1776
1790
1810
1835
1837
1852
1878
1911
1954
1994
2029
2055
2065
2073
2090
2071
2027
1963
1933
1906
1872
1842
1822
1821
1837
1818
1815
1808
1821
1810
1808
1794
1776
1807
1797
1792
1822
1853
1871
1903
1893
1906
1869
1820
1778
1771
1745
1739
1738
1738
1713
1729
1741
1747
1741
1738
2237
2855
2257
1588
1472
1330
1398
1594
1719
1760
1791
1808
1811
1854
1906
1858
1911
1947
1979
2005
2056
2102
2145
2161
2166
2161
2142
2096
2061
1999
1972
1929
1875
1866
1867
1866
1890
1873
1867
1897
1885
1904
1927
1911
1910
1950
1968
1985
2012
2043
2080
2098
2064
2027
2014
1986
1959
1953
1968
1979
1997
1974
1978
1984
2023
1982
2203
2934
2933
2113
1744
1711
1619
1788
1951
2073
2137
2113
2164
2195
2212
2227
2240
2304
2330
2363
2378
2461
2480
2498
2557
2515
2474
2484
2435
2368
2356
2320
2277
2275
2251
2209
2219
2235
2229
2241
2267
2276
2301
2275
2304
2326
2345
2321
2383
2402
2336
2265
2256
2255
2213
2183
2187
2149
2123
2162
2180
2186
2189
2183
2186
2580
3408
2747
1962
1827
1725
1736
1921
2065
2133
2134
2144
2148
2141
2171
2182
2188
2206
2226
2224
2271
2297
2288
2319
2323
2271
2249
2213
2141
2085
2028
1958
1939
1915
1870
1855
1867
1850
1845
1839
1812
1813
1813
1808
1843
1885
1883
1883
1879
1850
1786
1730
1709
1697
1658
1627
1616
1599
1584
1594
1588
1585
1598
1580
2011
2687
2174
1391
1226
1103
1161
1389
1495
1535
1590
1592
1595
1613
1626
1639
1653
1676
1694
1744
1766
1795
1842
1871
1865
1873
1840
1806
1754
1701
1660
1631
1614
1601
1600
1568
1559
1593
1589
1583
1600
1611
1603
1583
1595
1616
1658
1671
1716
1706
1681
1655
1641
1628
1587
1559
1563
1535
1535
1529
1530
1530
1555
1587
1517
1779
2554
2390
1589
1283
1158
1143
1355
1481
1555
1598
1620
1649
1679
1686
1695
1722
1746
1777
1813
1856
1894
1923
1951
1985
1984
1955
1917
1878
1851
1808
1787
1742
1711
1694
1695
1694
1705
1711
1717
1713
1737
1753
1751
1733
1744
1738
1751
1792
1824
1831
1849
1843
1855
1809
1781
1765
1733
1721
1719
1712
1712
1726
1737
1727
1733
1712
1715
2298
2854
2251
1616
1447
1303
1437
1619
1730
1750
1779
1817
1824
1825
1855
1879
1899
1917
1965
2009
2044
2076
2085
2113
2142
2129
2112
2086
2023
1955
1900
1906
1857
1830
1820
1806
1790
1813
1811
1787
1791
1811
1805
1792
1775
1776
1757
1765
1787
1822
1840
1844
1858
1838
1850
1798
1756
1733
1710
1702
1695
1693
1674
1703
1700
1686
1712
1664
1840
2553
2628
1841
1430
1349
1246
1456
1648
1728
1738
1735
1780
1812
1830
1859
1863
1862
1898
1952
1983
2027
2073
2085
2103
2101
2085
2069
2032
1968
1913
1884
1875
1851
1823
1783
1775
1807
1794
1803
1805
1808
1821
1811
1801
1817
1827
1841
1868
1869
1935
1966
1933
1897
1845
1811
1792
1791
1794
1776
1742
1743
1727
1758
1773
1805
1745
1861
2505
2789
1936
1477
1453
1302
1455
1648
1729
1791
1815
1826
1872
1859
1872
1903
1936
1958
1986
2034
2042
2073
2115
2128
2110
2100
2095
2045
1997
1955
1904
1849
1840
1814
1799
1782
1795
1819
1810
1808
1813
1840
1837
1838
1841
1907
1879
1890
1963
1953
1927
1909
1824
1783
1783
1791
1744
1739
1762
1759
1744
1751
1762
1808
1769
2068
2832
2515
1680
1466
1373
1335
1553
1724
1780
1785
1813
1839
1844
1872
1904
1925
1937
1946
1986
2041
2067
2122
2142
2143
2144
2118
2063
2019
1995
1940
1904
1889
1871
1835
1796
1802
1827
1833
1833
1835
1828
1835
1835
1857
1890
1924
1939
1950
1946
1935
1886
1849
1824
1777
1759
1765
1776
1741
1739
1757
1754
1779
1793
1729
2111
2829
2430
1653
1473
1357
1376
1587
1714
1776
1821
1823
1835
1872
1874
1883
1906
1938
1963
1997
2025
2078
2114
2128
2133
2130
2129
2097
2043
1984
1937
1920
1885
1840
1810
1829
1853
1844
1851
1842
1849
1858
1869
1862
1853
1854
1865
1909
1932
1957
1981
1971
1945
1889
1878
1857
1840
1831
1809
1806
1805
1808
1833
1838
1875
1841
1936
2601
2891
2137
1646
1535
1424
1600
1786
1893
1941
1957
1970
1989
2022
2043
2064
2096
2128
2160
2203
2236
2289
2333
2338
2349
2340
2327
2292
2247
2197
2150
2128
2117
2105
2098
2087
2096
2107
2129
2128
2121
2125
2127
2117
2102
2109
2113
2147
2205
2206
2221
2218
2222
2195
2155
2142
2110
2093
2098
2083
2070
2081
2086
2084
2073
2099
2027
2231
3050
2991
2191
1842
1712
1667
1859
1984
2064
2074
2087
2102
2116
2118
2146
2157
2172
2207
2239
2284
2305
2320
2348
2359
2341
2315
2298
2258
2211
2181
2141
2105
2078
2074
2070
2067
2035
2022
2032
2031
2027
2015
2000
2009
2006
1984
1974
1985
2003
1995
2020
2030
2000
1979
1901
1868
1837
1814
1799
1790
1776
1761
1789
1776
1807
1871
1798
1989
2747
2832
1985
1582
1472
1374
1535
1687
1773
1766
1776
1797
1809
1811
1827
1837
1850
1860
1885
1904
1965
1995
1991
2035
2045
2014
1982
1937
1896
1845
1810
1792
1759
1728
1703
1706
1711
1734
1741
1728
1759
1761
1742
1777
1776
1771
1780
1840
1888
1894
1931
1936
1921
1909
1866
1840
1831
1828
1822
1808
1824
1833
1853
1862
1893
1885
1873
2307
3007
2455
1746
1644
1535
1533
1744
1887
1964
1982
2027
2058
2047
2084
2112
2127
2160
2166
2215
2235
2275
2317
2353
2384
2354
2303
2303
2251
2194
2157
2111
2082
2034
2014
2027
1974
1974
1987
1999
1967
1968
1968
1963
1967
1969
1981
2031
2066
2096
2022
2016
1966
1897
1861
1830
1799
1782
1770
1733
1729
1710
1707
1695
1712
1668
2006
2737
2317
1498
1309
1205
1171
1360
1515
1587
1607
1605
1616
1615
1619
1643
1654
1664
1678
1721
1743
1769
1806
1817
1807
1787
1776
1747
1680
1625
1601
1563
1521
1460
1425
1424
1440
1409
1393
1413
1430
1421
1410
1392
1392
1419
1457
1474
1511
1520
1520
1477
1409
1408
1397
1360
1350
1351
1345
1355
1354
1358
1380
1424
1361
1642
2395
2249
1427
1129
1041
987
1214
1366
1439
1483
1511
1531
1571
1584
1594
1616
1668
1712
1728
1757
1809
1850
1873
1883
1901
1901
1872
1842
1802
1765
1711
1697
1692
1662
1637
1645
1664
1687
1680
1677
1697
1709
1693
1697
1695
1720
1744
1777
1802
1831
1817
1819
1794
1745
1733
1701
1691
1679
1679
1679
1675
1687
1696
1712
1711
1648
1999
2755
2399
1652
1422
1282
1303
1512
1645
1704
1727
1763
1783
1769
1783
1814
1829
1840
1861
1887
1936
1978
2019
2053
2043
2034
2033
2019
1973
1931
1876
1838
1808
1791
1771
1761
1772
1777
1769
1769
1761
1775
1770
1771
1758
1763
1754
1741
1765
1815
1840
1853
1841
1842
1851
1806
1783
1753
1716
1712
1723
1726
1725
1708
1713
1727
1771
1691
1831
2583
2715
1965
1520
1387
1307
1485
1632
1729
1759
1763
1788
1818
1815
1825
1866
1888
1904
1919
1951
1985
2032
2070
2095
2095
2086
2063
2016
1979
1940
1908
1889
1850
1801
1786
1801
1807
1802
1797
1815
1818
1815
1823
1821
1822
1814
1795
1802
1802
1838
1859
1879
1917
1909
1924
1903
1842
1834
1799
1791
1792
1778
1775
1774
1780
1796
1798
1792
1712
2017
2832
2641
1910
1591
1410
1391
1594
1712
1777
1804
1811
1822
1855
1874
1904
1910
1934
1958
1983
2015
2056
2080
2112
2134
2143
2123
2099
2067
2021
1983
1961
1920
1893
1888
1886
1891
1875
1890
1902
1897
1898
1919
1879
1874
1897
1889
1888
1883
1889
1897
1936
1954
1999
1999
2000
1989
1927
1891
1856
1847
1842
1824
1821
1823
1837
1840
1802
1842
1780
1913
2607
2827
2016
1562
1509
1340
1487
1685
1789
1839
1851
1872
1890
1890
1919
1927
1931
1981
2005
2030
2064
2103
2141
2143
2147
2139
2105
2058
2028
1998
1939
1917
1872
1826
1823
1808
1807
1811
1798
1815
1841
1819
1834
1829
1799
1830
1886
1888
1896
1969
1963
1919
1872
1840
1823
1791
1743
1744
1730
1734
1748
1722
1733
1729
1761
1715
1930
2661
2635
1744
1411
1419
1303
1413
1653
1758
1746
1766
1797
1821
1815
1856
1876
1878
1915
1954
1995
2010
2038
2093
2112
2091
2077
2070
2038
1999
1923
1877
1858
1844
1833
1810
1809
1802
1807
1819
1825
1813
1823
1840
1824
1845
1889
1913
1922
1974
1973
1958
1918
1851
1836
1808
1777
1754
1771
1754
1744
1762
1752
1762
1820
1743
2032
2811
2559
1686
1455
1365
1331
1535
1689
1769
1808
1795
1810
1846
1850
1872
1903
1919
1945
1973
1988
2041
2087
2087
2096
2111
2097
2059
2030
1978
1936
1904
1873
1854
1821
1798
1803
1833
1833
1823
1825
1837
1855
1836
1850
1886
1911
1935
1978
2000
1963
1942
1901
1890
1896
1839
1808
1819
1840
1823
1821
1855
1856
1873
1845
1936
2579
2999
2213
1626
1571
1450
1613
1802
1904
1942
1979
1993
1999
2032
2075
2106
2112
2128
2175
2223
2247
2293
2323
2335
2352
2336
2342
2313
2268
2222
2192
2161
2128
2096
2078
2089
2103
2097
2107
2099
2089
2101
2143
2118
2098
2097
2096
2115
2161
2185
2183
2239
2245
2210
2170
2124
2114
2103
2066
2041
2067
2062
2041
2064
2063
2090
2073
2014
2463
3219
2629
1895
1762
1618
1680
1883
1987
2032
2069
2076
2067
2103
2101
2117
2141
2147
2176
2221
2235
2251
2282
2286
2288
2302
2285
2256
2224
2156
2113
2068
2015
1989
1981
1965
1947
1936
1930
1929
1942
1936
1931
1937
1917
1891
1879
1872
1897
1936
1936
1947
1979
1951
1941
1901
1853
1822
1803
1777
1763
1765
1738
1715
1743
1726
1741
1715
1694
2240
2847
2231
1570
1402
1244
1351
1529
1638
1671
1693
1705
1716
1750
1745
1765
1785
1790
1806
1840
1871
1905
1957
1965
1948
1962
1942
1904
1881
1826
1790
1757
1712
1694
1686
1669
1654
1667
1662
1648
1673
1652
1654
1666
1636
1635
1648
1650
1648
1648
1638
1667
1693
1713
1731
1763
1735
1681
1680
1657
1634
1642
1629
1606
1612
1595
1602
1617
1626
1535
1649
2362
2655
1949
1422
1255
1182
1344
1503
1601
1617
1644
1677
1683
1722
1741
1734
1775
1803
1847
1889
1910
1946
1995
2011
2029
2036
2009
1995
1955
1904
1888
1859
1835
1795
1792
1813
1815
1792
1803
1802
1798
1814
1822
1821
1826
1794
1793
1817
1825
1835
1861
1900
1910
1967
1945
1941
1937
1883
1851
1843
1840
1808
1825
1808
1817
1821
1822
1831
1859
1776
2067
2832
2631
1824
1535
1491
1407
1600
1746
1843
1856
1873
1919
1931
1923
1953
1968
1989
2023
2027
2038
2101
2141
2167
2159
2173
2166
2147
2128
2066
2037
2022
1958
1893
1881
1894
1898
1872
1872
1863
1883
1898
1888
1898
1882
1881
1901
1951
1953
1959
2005
2034
2000
1979
1922
1881
1893
1842
1795
1819
1819
1783
1779
1791
1797
1837
1801
1825
2363
2929
2158
1520
1510
1347
1413
1651
1744
1779
1817
1842
1849
1846
1891
1890
1899
1914
1954
1985
2013
2018
2061
2094
2085
2067
2064
2033
1983
1954
1909
1840
1808
1785
1755
1760
1747
1727
1735
1759
1745
1728
1757
1739
1744
1775
1810
1826
1845
1864
1849
1809
1751
1715
1709
1673
1645
1625
1623
1627
1628
1634
1625
1669
1629
1719
2373
2747
1936
1366
1301
1187
1330
1509
1609
1649
1680
1695
1727
1713
1741
1774
1770
1813
1835
1843
1879
1917
1943
1967
1989
1970
1955
1915
1882
1869
1814
1766
1743
1730
1713
1707
1706
1715
1727
1730
1730
1729
1738
1733
1722
1712
1766
1807
1801
1837
1856
1840
1786
1730
1712
1683
1664
1654
1670
1649
1638
1645
1643
1675
1709
1630
1827
2593
2605
1766
1388
1309
1232
1437
1604
1687
1696
1733
1744
1765
1767
1787
1813
1856
1867
1893
1936
1984
2010
2038
2059
2061
2039
2031
2006
1979
1919
1879
1854
1829
1815
1793
1807
1791
1781
1794
1811
1808
1808
1825
1832
1808
1805
1799
1833
1851
1872
1887
1942
1945
1936
1895
1833
1811
1799
1784
1785
1798
1776
1755
1765
1776
1793
1815
1750
2002
2771
2606
1815
1527
1418
1366
1571
1712
1808
1835
1838
1855
1879
1893
1907
1919
1947
1959
1993
2045
2077
2109
2128
2138
2158
2158
2115
2080
2037
2003
1964
1947
1925
1881
1859
1872
1859
1840
1849
1872
1874
1867
1877
1857
1872
1865
1870
1863
1844
1839
1886
1936
1946
1978
1955
1950
1915
1893
1877
1855
1821
1808
1792
1795
1809
1810
1813
1813
1823
1760
2118
2872
2528
1788
1571
1424
1406
1609
1734
1805
1815
1830
1851
1869
1890
1907
1936
1938
1957
1985
2030
2057
2077
2106
2121
2128
2124
2096
2077
2027
1993
1968
1925
1871
1838
1813
1818
1819
1834
1840
1840
1840
1844
1852
1872
1874
1845
1840
1835
1840
1858
1897
1921
1935
1951
1932
1904
1887
1877
1847
1808
1793
1797
1787
1776
1780
1795
1795
1808
1806
1793
2251
2899
2373
1702
1535
1404
1474
1681
1791
1853
1883
1895
1933
1965
1981
2000
2017
2072
2096
2128
2187
2246
2273
2315
2334
2345
2352
2325
2290
2277
2243
2208
2183
2162
2145
2150
2151
2156
2176
2189
2183
2203
2229
2207
2211
2239
2235
2235
2246
2259
2317
2359
2368
2369
2387
2379
2342
2294
2301
2258
2239
2254
2226
2229
2237
2255
2259
2279
2262
2243
2759
3521
2701
2010
1939
1815
1829
2034
2160
2207
2203
2207
2209
2224
2227
2256
2230
2235
2267
2267
2291
2322
2326
2351
2338
2311
2290
2250
2188
2141
2102
2058
2005
1946
1911
1904
1878
1824
1840
1857
1826
1840
1834
1809
1783
1806
1822
1821
1838
1840
1887
1872
1797
1759
1718
1683
1634
1599
1591
1535
1519
1519
1520
1504
1481
1535
1498
1686
2382
2371
1454
1121
1067
966
1117
1264
1351
1340
1363
1397
1391
1403
1419
1423
1424
1442
1467
1473
1498
1534
1573
1573
1535
1557
1535
1465
1423
1414
1341
1314
1296
1237
1235
1243
1243
1241
1258
1247
1263
1280
1266
1250
1269
1327
1355
1367
1399
1447
1445
1397
1357
1349
1348
1299
1296
1295
1310
1311
1327
1360
1359
1410
1402
1437
2019
2607
1904
1229
1127
1019
1150
1360
1474
1521
1535
1571
1616
1658
1682
1705
1741
1771
1799
1822
1873
1906
1964
2000
2025
2020
2033
2013
1968
1941
1902
1847
1840
1817
1819
1807
1801
1824
1841
1858
1863
1860
1870
1877
1872
1884
1904
1946
1985
1995
2038
2064
2064
2007
1947
1923
1906
1882
1859
1870
1873
1872
1883
1872
1885
1921
1878
1955
2608
3003
2227
1643
1566
1456
1600
1745
1873
1910
1927
1933
1934
1938
1959
1997
2023
2038
2067
2105
2142
2175
2204
2231
2249
2265
2261
2219
2191
2155
2118
2081
2064
2046
2023
2011
2010
2019
2023
2015
2006
1999
1998
2012
2010
2001
1990
2013
2017
2033
2079
2077
2090
2096
2096
2070
2011
1983
1947
1931
1925
1918
1903
1900
1915
1911
1894
1923
1837
2025
2833
2880
2081
1667
1530
1485
1669
1809
1881
1907
1917
1936
1951
1965
1983
1998
2027
2036
2063
2100
2135
2178
2197
2215
2220
2221
2206
2171
2128
2087
2042
2010
1971
1937
1924
1923
1922
1919
1911
1910
1915
1918
1911
1903
1904
1890
1879
1871
1891
1930
1936
1939
1967
1970
1939
1897
1869
1850
1838
1824
1815
1821
1812
1809
1794
1793
1808
1808
1726
2105
2902
2544
1788
1508
1344
1420
1606
1699
1751
1775
1792
1793
1798
1838
1829
1840
1872
1889
1922
1947
1971
2027
2043
2059
2071
2066
2030
1999
1964
1915
1887
1847
1797
1796
1778
1754
1747
1749
1778
1771
1765
1759
1755
1744
1739
1753
1757
1762
1778
1791
1820
1840
1895
1893
1885
1895
1845
1805
1778
1770
1754
1745
1761
1761
1779
1783
1772
1802
1744
1904
2597
2790
1939
1494
1495
1370
1498
1677
1770
1823
1858
1850
1863
1906
1920
1908
1953
1967
1988
2032
2044
2087
2119
2127
2145
2154
2157
2105
2047
2036
1979
1941
1919
1863
1846
1835
1831
1847
1861
1860
1840
1833
1858
1891
1867
1842
1857
1891
1920
1946
1972
2004
1966
1904
1889
1842
1795
1784
1791
1780
1769
1763
1776
1765
1739
1808
1756
1936
2639
2768
1872
1458
1440
1335
1483
1667
1790
1826
1817
1853
1824
1849
1898
1927
1939
1936
1995
2000
2014
2074
2093
2106
2146
2113
2117
2084
2032
2002
1966
1937
1910
1902
1853
1853
1874
1833
1840
1872
1862
1877
1855
1858
1872
1904
1936
1945
1959
2021
2003
1949
1889
1859
1839
1810
1782
1766
1762
1776
1795
1766
1755
1791
1808
1776
2192
2929
2400
1603
1471
1365
1394
1600
1706
1775
1814
1830
1822
1853
1873
1870
1909
1931
1920
1942
2005
2047
2064
2103
2120
2109
2087
2058
2032
1995
1966
1923
1883
1859
1834
1822
1810
1795
1808
1836
1840
1814
1808
1829
1837
1842
1851
1887
1901
1951
1941
1922
1895
1840
1824
1803
1767
1751
1756
1771
1744
1715
1747
1775
1817
1751
1844
2527
2812
2045
1533
1436
1320
1474
1644
1773
1798
1809
1829
1849
1847
1872
1888
1915
1952
1963
1989
2021
2060
2109
2128
2138
2124
2107
2079
2041
2015
1971
1942
1899
1876
1876
1860
1859
1865
1873
1878
1874
1879
1883
1882
1895
1887
1892
1915
1949
1965
1991
1996
1985
1957
1919
1910
1886
1867
1851
1834
1833
1825
1821
1829
1838
1886
1826
1862
2496
2953
2254
1675
1535
1418
1578
1735
1839
1872
1899
1921
1937
1943
1969
1993
2011
2047
2071
2105
2139
2176
2213
2228
2259
2258
2245
2217
2187
2151
2113
2082
2053
2033
2006
2000
1994
2000
2011
2020
2031
2022
2029
2019
2023
2011
2003
2011
2053
2097
2110
2117
2131
2138
2112
2081
2047
2027
1991
1975
1974
1968
1961
1967
1967
1953
1979
1930
1923
2501
3122
2493
1843
1648
1513
1629
1793
1898
1905
1915
1937
1939
1943
1982
1982
1985
2013
2016
2039
2087
2103
2126
2155
2158
2144
2141
2112
2058
2022
1968
1927
1899
1851
1827
1831
1808
1785
1795
1793
1793
1807
1782
1778
1778
1773
1771
1778
1762
1740
1760
1781
1777
1831
1827
1803
1783
1739
1727
1713
1662
1642
1648
1619
1602
1627
1613
1603
1631
1610
1535
2019
2691
2206
1519
1297
1147
1257
1421
1535
1577
1582
1613
1655
1633
1647
1696
1711
1726
1751
1757
1791
1841
1847
1888
1921
1906
1919
1929
1857
1821
1808
1755
1712
1690
1663
1651
1650
1641
1648
1680
1663
1653
1678
1680
1661
1655
1659
1666
1666
1677
1707
1747
1744
1781
1827
1817
1751
1723
1701
1667
1677
1655
1647
1648
1654
1646
1670
1675
1681
1627
1788
2481
2653
1823
1393
1401
1248
1389
1582
1666
1727
1763
1741
1761
1813
1819
1823
1843
1865
1897
1937
1958
1983
2019
2045
2077
2060
2057
2026
1985
1936
1905
1895
1846
1831
1811
1783
1783
1776
1776
1789
1803
1801
1805
1838
1807
1779
1808
1850
1870
1871
1904
1963
1941
1903
1866
1853
1823
1779
1761
1746
1775
1762
1777
1767
1744
1788
1813
1760
2150
2905
2430
1662
1503
1393
1374
1613
1739
1793
1838
1859
1866
1872
1910
1918
1920
1955
1990
1996
2029
2065
2112
2122
2125
2142
2141
2112
2070
2035
2003
1974
1951
1911
1887
1873
1871
1859
1865
1853
1870
1873
1872
1869
1871
1875
1887
1889
1927
1947
1950
1997
2001
1999
1947
1904
1882
1853
1808
1806
1810
1810
1826
1830
1819
1812
1859
1798
1936
2663
2825
2012
1565
1488
1377
1568
1718
1808
1837
1849
1863
1906
1938
1935
1967
1938
1959
1993
2000
2046
2109
2150
2181
2155
2130
2103
2087
2045
2001
1951
1925
1882
1841
1806
1786
1808
1822
1809
1791
1807
1802
1799
1805
1796
1791
1808
1818
1826
1808
1826
1872
1875
1899
1921
1920
1930
1899
1883
1827
1807
1821
1810
1779
1783
1799
1814
1806
1825
1792
1741
2230
2953
2395
1697
1529
1389
1439
1635
1746
1807
1839
1842
1851
1873
1895
1919
1936
1936
1968
2011
2015
2067
2100
2114
2137
2157
2151
2139
2102
2064
2018
1945
1914
1895
1872
1856
1870
1856
1845
1831
1842
1853
1855
1870
1855
1840
1839
1825
1827
1829
1867
1883
1903
1904
1936
1947
1919
1876
1849
1834
1821
1824
1814
1776
1755
1783
1788
1798
1829
1803
1742
2128
2885
2448
1776
1535
1378
1453
1614
1719
1757
1779
1817
1813
1813
1827
1834
1874
1904
1907
1921
1958
2003
2045
2047
2086
2095
2091
2087
2063
1999
1956
1917
1879
1852
1857
1830
1808
1799
1818
1818
1840
1826
1814
1820
1807
1815
1815
1823
1809
1795
1803
1813
1817
1870
1904
1917
1917
1920
1946
1899
1857
1823
1840
1804
1776
1787
1803
1764
1754
1775
1809
1805
1791
2268
2897
2263
1607
1505
1374
1394
1606
1735
1781
1809
1835
1866
1853
1856
1874
1917
1937
1946
1973
2007
2034
2067
2097
2096
2128
2115
2087
2044
2023
2004
1945
1909
1889
1840
1811
1817
1807
1822
1826
1831
1838
1826
1841
1840
1809
1838
1841
1865
1887
1901
1939
1965
1957
1906
1875
1840
1815
1776
1757
1766
1747
1746
1735
1744
1775
1771
1749
1743
2137
2853
2383
1593
1447
1368
1330
1518
1671
1785
1794
1787
1801
1830
1840
1863
1860
1889
1925
1963
1985
2021
2029
2057
2083
2109
2102
2079
2045
1999
1991
1963
1875
1837
1835
1838
1826
1829
1843
1827
1819
1843
1840
1840
1839
1846
1884
1919
1933
1942
1985
1978
1935
1887
1872
1851
1817
1793
1766
1775
1767
1762
1767
1775
1769
1808
1735
1923
2687
2796
1922
1473
1408
1322
1494
1651
1751
1798
1803
1840
1837
1851
1869
1872
1903
1931
1955
1969
2001
2047
2055
2083
2109
2121
2092
2065
2031
1994
1947
1925
1885
1853
1845
1833
1830
1826
1826
1842
1850
1852
1856
1856
1853
1834
1853
1892
1927
1936
1959
1978
1953
1893
1870
1854
1831
1802
1781
1789
1801
1796
1793
1787
1783
1833
1770
1893
2640
2881
2061
1561
1456
1371
1573
1719
1803
1819
1835
1869
1886
1904
1920
1935
1957
1972
2010
2032
2064
2115
2148
2155
2173
2177
2179
2149
2095
2056
2026
2001
1958
1926
1908
1892
1887
1904
1910
1910
1910
1914
1931
1931
1933
1911
1904
1904
1904
1919
1948
1977
1989
2015
2018
2027
2000
1957
1926
1905
1898
1889
1879
1870
1873
1872
1872
1851
1892
1840
1857
2496
3045
2369
1765
1572
1427
1582
1732
1821
1859
1874
1890
1903
1919
1939
1941
1956
1963
1984
2011
2032
2081
2127
2141
2155
2147
2151
2128
2091
2064
2043
1986
1942
1919
1903
1879
1906
1917
1901
1871
1858
1873
1883
1866
1855
1859
1856
1840
1841
1840
1840
1847
1840
1808
1800
1810
1836
1867
1873
1903
1910
1922
1891
1828
1826
1803
1763
1754
1771
1772
1783
1758
1755
1777
1758
1727
2123
2826
2427
1702
1488
1361
1328
1515
1667
1737
1744
1769
1776
1779
1821
1842
1849
1849
1872
1910
1922
1954
2000
2023
2037
2047
2046
2030
2007
1975
1943
1905
1840
1826
1808
1773
1770
1750
1744
1760
1769
1789
1766
1751
1772
1769
1776
1778
1775
1759
1743
1776
1802
1820
1853
1885
1885
1877
1856
1831
1783
1761
1751
1703
1710
1730
1695
1702
1701
1721
1746
1721
1683
2112
2822
2230
1523
1424
1315
1296
1498
1642
1726
1733
1772
1763
1775
1818
1840
1821
1841
1872
1898
1931
1975
2019
2043
2018
2032
2037
2027
1994
1950
1924
1872
1830
1797
1779
1763
1779
1767
1751
1766
1750
1751
1763
1794
1781
1779
1776
1779
1806
1830
1874
1889
1904
1920
1893
1867
1830
1807
1772
1730
1712
1735
1750
1735
1731
1729
1734
1767
1738
1818
2429
2863
2021
1459
1463
1327
1405
1619
1732
1774
1804
1821
1823
1847
1872
1872
1888
1923
1951
1973
1984
2031
2074
2103
2115
2123
2098
2085
2044
1989
1942
1927
1888
1846
1830
1837
1837
1807
1808
1811
1839
1839
1826
1840
1840
1832
1831
1830
1833
1851
1894
1905
1943
1982
1957
1919
1872
1846
1830
1792
1791
1776
1765
1775
1775
1770
1773
1788
1819
1741
2025
2818
2603
1793
1491
1398
1377
1584
1712
1776
1791
1813
1842
1857
1856
1885
1908
1933
1937
1975
2000
2038
2066
2080
2103
2121
2129
2128
2098
2057
2001
1966
1933
1894
1862
1851
1847
1847
1842
1836
1835
1841
1857
1860
1856
1856
1854
1827
1824
1829
1834
1838
1829
1833
1863
1882
1887
1927
1936
1921
1872
1840
1814
1794
1787
1777
1743
1739
1760
1770
1735
1728
1763
1744
1743
2288
2897
2305
1653
1472
1315
1424
1605
1712
1749
1775
1799
1798
1813
1841
1853
1872
1889
1910
1949
1982
2002
2033
2069
2081
2096
2096
2090
2064
2027
1968
1936
1904
1869
1837
1830
1827
1824
1838
1824
1825
1836
1840
1834
1823
1822
1823
1834
1819
1811
1807
1822
1815
1815
1831
1871
1895
1899
1936
1974
1974
1943
1910
1852
1815
1822
1814
1808
1801
1772
1775
1792
1793
1837
1801
1775
2277
2925
2351
1695
1535
1360
1456
1660
1780
1825
1845
1851
1846
1888
1904
1922
1963
1979
1991
2026
2054
2096
2165
2207
2196
2233
2226
2219
2215
2192
2165
2118
2096
2064
2045
2018
2018
2032
2037
2061
2068
2054
2082
2103
2089
2098
2112
2109
2128
2116
2135
2152
2133
2159
2190
2244
2261
2259
2320
2363
2337
2281
2256
2259
2239
2199
2206
2229
2215
2219
2229
2240
2256
2273
2194
2378
3167
3392
2431
1987
1936
1847
1937
2132
2266
2311
2289
2307
2356
2359
2355
2371
2391
2411
2427
2438
2481
2510
2527
2545
2559
2587
2546
2523
2499
2456
2416
2369
2323
2267
2224
2197
2206
2183
2131
2160
2166
2125
2125
2099
2109
2103
2030
2032
2005
1991
2057
2026
1997
2031
2059
2000
1915
1873
1844
1821
1776
1731
1693
1680
1674
1645
1649
1626
1622
1618
1613
2071
2691
2065
1326
1223
1088
1095
1314
1431
1464
1485
1478
1479
1499
1526
1526
1523
1535
1568
1584
1613
1646
1689
1715
1727
1751
1744
1731
1708
1651
1616
1600
1568
1526
1506
1492
1496
1498
1490
1493
1511
1521
1535
1526
1527
1553
1567
1554
1572
1600
1657
1674
1710
1727
1727
1695
1659
1637
1625
1618
1608
1616
1598
1585
1597
1608
1606
1634
1646
1616
2070
2761
2257
1535
1380
1239
1282
1508
1632
1679
1713
1751
1763
1779
1792
1815
1840
1829
1861
1901
1947
1995
2019
2042
2073
2110
2096
2069
2061
2032
1997
1959
1926
1894
1872
1872
1872
1870
1871
1859
1872
1890
1871
1856
1855
1846
1837
1822
1815
1819
1822
1828
1830
1850
1879
1890
1903
1894
1892
1871
1813
1792
1774
1731
1730
1723
1686
1712
1724
1685
1693
1728
1666
1722
2345
2781
2117
1529
1388
1257
1393
1529
1644
1700
1701
1721
1741
1734
1758
1775
1776
1807
1820
1825
1869
1918
1942
1965
1984
1973
1982
1974
1947
1917
1865
1821
1781
1759
1741
1707
1710
1698
1712
1725
1709
1715
1734
1729
1725
1745
1723
1715
1742
1718
1719
1726
1712
1712
1727
1743
1765
1815
1809
1830
1870
1861
1856
1825
1778
1774
1790
1777
1758
1767
1732
1731
1738
1723
1757
1711
1785
2452
2809
2096
1584
1456
1305
1451
1633
1700
1714
1759
1786
1802
1812
1801
1827
1872
1860
1872
1931
1954
1984
2025
2055
2074
2096
2064
2036
2045
2022
1967
1925
1885
1875
1869
1809
1795
1825
1814
1808
1808
1789
1819
1838
1801
1813
1813
1787
1811
1822
1784
1801
1810
1791
1794
1817
1846
1888
1895
1920
1953
1954
1891
1863
1863
1812
1801
1802
1805
1786
1804
1808
1775
1792
1805
1767
1815
2367
2940
2256
1629
1520
1403
1424
1634
1767
1845
1858
1847
1870
1904
1919
1915
1931
1965
1974
1979
2003
2042
2084
2113
2139
2138
2134
2098
2097
2083
2028
2000
1947
1919
1894
1856
1847
1847
1856
1827
1841
1858
1850
1847
1841
1842
1851
1855
1858
1830
1850
1875
1901
1904
1938
1978
1974
1927
1885
1853
1809
1793
1808
1790
1777
1779
1767
1773
1770
1799
1799
1782
2224
2931
2355
1616
1505
1389
1347
1569
1715
1786
1808
1825
1814
1851
1886
1875
1886
1919
1943
1949
1986
2014
2043
2089
2097
2110
2114
2101
2063
2031
1983
1958
1907
1889
1869
1817
1833
1827
1803
1810
1815
1823
1839
1841
1840
1826
1810
1820
1841
1871
1889
1902
1915
1968
1972
1931
1883
1850
1827
1805
1779
1776
1773
1773
1780
1780
1771
1763
1804
1712
1869
2602
2821
2008
1521
1443
1325
1502
1678
1772
1808
1825
1829
1851
1855
1872
1894
1911
1935
1959
1969
1999
2046
2080
2098
2112
2125
2118
2109
2075
2027
1981
1941
1907
1885
1872
1847
1818
1815
1834
1821
1811
1836
1856
1854
1818
1814
1822
1829
1825
1802
1806
1827
1870
1891
1881
1899
1942
1943
1888
1845
1839
1808
1781
1773
1759
1762
1754
1745
1765
1770
1797
1757
1745
2291
2911
2321
1665
1483
1328
1433
1613
1723
1756
1765
1797
1809
1815
1838
1861
1872
1893
1903
1933
1974
1997
2020
2055
2079
2081
2086
2065
2034
2014
1982
1939
1901
1873
1849
1823
1811
1823
1821
1815
1827
1831
1836
1841
1831
1840
1838
1840
1840
1850
1855
1853
1857
1863
1872
1906
1956
1946
1958
1993
1986
1961
1922
1922
1921
1889
1863
1874
1875
1885
1911
1904
1869
1904
1910
1887
2394
3092
2486
1826
1665
1518
1616
1802
1899
1952
1998
2020
2032
2064
2075
2089
2143
2149
2160
2202
2237
2272
2320
2355
2397
2395
2405
2427
2391
2325
2304
2272
2256
2209
2185
2158
2155
2139
2158
2174
2165
2141
2170
2192
2192
2164
2163
2167
2160
2169
2160
2165
2162
2177
2195
2229
2235
2229
2290
2298
2265
2217
2177
2164
2122
2112
2112
2096
2080
2087
2066
2075
2059
2081
2014
2227
2977
2985
2151
1744
1731
1601
1726
1897
1993
2032
2045
2054
2053
2047
2078
2084
2096
2111
2107
2126
2124
2160
2207
2214
2239
2225
2210
2174
2133
2077
2045
2004
1988
1929
1904
1870
1858
1830
1825
1819
1850
1827
1825
1828
1799
1783
1788
1781
1760
1776
1817
1838
1837
1858
1879
1872
1829
1787
1748
1743
1694
1689
1676
1649
1638
1647
1653
1657
1680
1723
1664
2020
2774
2415
1617
1442
1363
1275
1469
1619
1691
1725
1734
1750
1761
1774
1795
1821
1809
1821
1860
1898
1909
1919
1965
1989
1999
1995
1982
1961
1911
1882
1858
1807
1744
1741
1712
1683
1693
1686
1664
1665
1681
1680
1690
1678
1678
1682
1674
1681
1681
1705
1746
1773
1769
1792
1783
1744
1695
1677
1648
1606
1603
1600
1584
1567
1570
1589
1596
1611
1645
1559
1861
2628
2403
1593
1339
1210
1153
1357
1499
1586
1615
1643
1653
1679
1694
1681
1680
1710
1743
1763
1795
1827
1862
1900
1930
1923
1934
1936
1907
1873
1829
1797
1775
1728
1693
1680
1674
1659
1668
1684
1689
1690
1681
1691
1712
1712
1712
1711
1723
1712
1712
1709
1715
1744
1776
1807
1807
1840
1856
1827
1793
1758
1742
1713
1703
1699
1680
1680
1679
1680
1685
1680
1712
1659
1763
2466
2752
2029
1502
1364
1239
1405
1559
1643
1678
1707
1718
1724
1754
1775
1776
1790
1808
1829
1872
1901
1937
1975
2009
2021
2026
2025
2003
1995
1951
1913
1876
1846
1812
1790
1774
1762
1751
1759
1755
1777
1777
1775
1774
1770
1763
1751
1757
1767
1761
1747
1757
1766
1762
1759
1757
1755
1771
1803
1843
1839
1859
1867
1882
1856
1808
1792
1777
1756
1757
1757
1753
1744
1745
1757
1771
1787
1712
1989
2794
2671
1938
1605
1418
1403
1605
1713
1743
1766
1791
1815
1840
1860
1861
1877
1904
1932
1939
1961
2000
2032
2038
2079
2096
2106
2128
2112
2068
2041
1991
1952
1921
1887
1857
1862
1855
1839
1829
1847
1840
1862
1846
1840
1841
1840
1841
1839
1847
1818
1817
1830
1833
1827
1820
1831
1849
1892
1920
1919
1951
1994
1964
1934
1904
1872
1847
1853
1830
1814
1813
1813
1822
1808
1810
1819
1813
1779
2253
2945
2420
1726
1561
1431
1415
1626
1744
1831
1856
1875
1861
1883
1936
1932
1925
1949
1994
2043
2063
2084
2125
2158
2176
2199
2205
2196
2192
2158
2142
2114
2064
2039
2015
1999
1999
1984
1999
1991
2000
2007
2045
2059
2035
2035
2064
2069
2096
2112
2106
2125
2120
2160
2228
2256
2267
2241
2227
2193
2197
2178
2163
2126
2128
2134
2161
2160
2157
2174
2193
2181
2186
2625
3431
2750
2023
1941
1852
1819
2038
2172
2250
2277
2295
2331
2347
2374
2386
2379
2401
2431
2445
2478
2518
2559
2606
2601
2606
2626
2619
2559
2518
2481
2448
2397
2352
2329
2313
2285
2266
2276
2275
2251
2227
2256
2225
2208
2206
2224
2224
2182
2185
2201
2229
2229
2222
2256
2243
2183
2128
2096
2064
2019
1991
1978
1971
1943
1949
1943
1936
1910
1935
1856
2135
2901
2756
1933
1603
1503
1418
1597
1725
1801
1812
1833
1844
1847
1848
1857
1866
1855
1859
1877
1890
1905
1959
2007
2032
2063
2058
2042
2000
1947
1910
1848
1804
1771
1714
1677
1627
1606
1603
1606
1600
1579
1575
1573
1559
1535
1525
1496
1464
1456
1458
1457
1477
1520
1571
1589
1571
1594
1600
1535
1485
1438
1392
1375
1360
1328
1329
1328
1317
1315
1307
1296
1328
1262
1520
2337
2226
1446
1104
961
911
1106
1261
1335
1366
1404
1415
1437
1467
1487
1517
1533
1561
1607
1643
1681
1714
1772
1791
1806
1825
1845
1833
1815
1787
1763
1730
1705
1683
1673
1655
1649
1679
1688
1697
1689
1717
1734
1734
1725
1735
1750
1770
1777
1777
1790
1787
1791
1811
1812
1826
1841
1872
1915
1936
1963
1982
2014
1995
1961
1934
1919
1913
1906
1905
1911
1907
1910
1926
1931
1958
1943
1891
2344
3125
2656
1952
1724
1575
1633
1795
1925
1995
2021
2072
2131
2185
2266
2371
2432
2500
2527
2541
2558
2594
2608
2608
2638
2640
2624
2589
2549
2512
2471
2416
2369
2305
2261
2245
2198
2161
2144
2124
2117
2115
2109
2093
2077
2066
2034
2018
2018
1998
1969
1971
1958
1935
1925
1949
1936
1931
1975
2009
2001
1995
2029
2044
2014
1975
1938
1903
1891
1869
1855
1840
1795
1782
1805
1795
1808
1826
1702
1902
2609
2751
1977
1533
1450
1300
1426
1609
1685
1682
1724
1755
1754
1749
1774
1808
1792
1791
1840
1855
1870
1890
1925
1948
1950
1979
1986
1936
1920
1909
1872
1838
1808
1747
1723
1683
1661
1686
1670
1659
1679
1671
1684
1681
1674
1673
1681
1685
1687
1691
1669
1669
1724
1745
1750
1746
1781
1793
1755
1710
1673
1671
1616
1600
1581
1578
1570
1557
1565
1582
1571
1582
1488
1657
2288
2537
1726
1270
1257
1109
1215
1383
1503
1558
1579
1600
1623
1629
1647
1673
1683
1712
1713
1739
1765
1808
1847
1873
1899
1904
1904
1888
1863
1817
1791
1753
1718
1678
1635
1624
1634
1625
1616
1641
1644
1629
1633
1636
1649
1629
1642
1652
1667
1686
1714
1732
1756
1775
1807
1760
1728
1681
1674
1667
1638
1616
1625
1635
1635
1623
1611
1599
1646
1647
1618
2112
2811
2235
1491
1380
1246
1275
1479
1601
1673
1679
1705
1743
1759
1777
1797
1808
1817
1843
1859
1893
1936
1958
1988
2002
2032
2029
2013
1995
1968
1947
1895
1868
1836
1786
1775
1775
1761
1750
1761
1757
1758
1779
1791
1777
1774
1759
1775
1778
1776
1774
1776
1794
1850
1859
1854
1889
1933
1889
1866
1854
1810
1786
1780
1770
1774
1769
1735
1733
1747
1735
1776
1764
1744
2303
2935
2318
1629
1481
1334
1424
1617
1715
1775
1796
1803
1821
1856
1863
1887
1895
1893
1929
1958
1974
2007
2077
2097
2119
2133
2116
2133
2123
2081
2029
2010
1958
1918
1899
1871
1867
1879
1861
1859
1875
1873
1869
1886
1846
1861
1884
1871
1866
1871
1849
1855
1867
1847
1846
1875
1910
1927
1925
1962
2003
1975
1916
1874
1873
1847
1833
1821
1803
1808
1798
1779
1797
1802
1821
1766
1808
2434
2945
2306
1707
1505
1381
1499
1664
1772
1790
1817
1854
1855
1864
1883
1908
1926
1955
1969
1989
2021
2030
2064
2087
2103
2115
2128
2121
2093
2054
1986
1967
1940
1904
1877
1858
1825
1815
1828
1819
1837
1829
1810
1841
1837
1803
1812
1842
1822
1819
1824
1788
1807
1811
1792
1805
1834
1823
1823
1840
1824
1856
1889
1929
1926
1962
1975
1957
1919
1904
1918
1895
1862
1840
1840
1840
1835
1831
1815
1819
1856
1802
1985
2727
2797
2000
1583
1535
1387
1557
1711
1808
1823
1842
1872
1893
1903
1911
1926
1939
1957
1983
2018
2027
2058
2089
2126
2143
2160
2163
2141
2134
2107
2054
2000
1979
1959
1922
1906
1888
1869
1857
1879
1872
1863
1853
1873
1887
1859
1862
1866
1871
1859
1847
1856
1891
1920
1911
1924
1945
1984
1945
1925
1876
1841
1838
1793
1767
1790
1793
1757
1757
1782
1753
1786
1771
1840
2401
2887
2121
1514
1487
1383
1423
1618
1732
1799
1808
1830
1840
1854
1878
1885
1904
1918
1937
1958
1984
2015
2058
2081
2101
2125
2119
2096
2066
2019
1970
1955
1919
1874
1856
1820
1814
1803
1795
1793
1776
1782
1809
1807
1808
1787
1792
1808
1792
1789
1831
1859
1872
1889
1909
1928
1883
1855
1824
1805
1775
1766
1741
1727
1719
1740
1722
1706
1712
1766
1702
1786
2445
2845
2080
1527
1456
1287
1394
1580
1693
1728
1755
1782
1804
1822
1827
1845
1863
1872
1902
1934
1949
1979
2015
2058
2096
2103
2086
2064
2062
2019
1968
1922
1885
1856
1841
1827
1812
1808
1809
1799
1817
1829
1828
1814
1831
1831
1815
1795
1798
1821
1808
1808
1808
1811
1841
1879
1895
1888
1922
1968
1907
1886
1850
1835
1807
1792
1769
1760
1776
1763
1776
1771
1759
1803
1756
1833
2503
2873
2159
1611
1493
1343
1474
1643
1747
1781
1805
1824
1840
1845
1856
1894
1905
1905
1941
1967
1977
2014
2039
2086
2111
2117
2112
2108
2079
2053
2013
1976
1954
1905
1861
1865
1846
1840
1836
1831
1847
1845
1837
1860
1856
1843
1824
1829
1819
1830
1819
1809
1821
1824
1830
1842
1887
1917
1925
1918
1969
1985
1943
1904
1874
1863
1855
1852
1818
1808
1804
1790
1793
1783
1777
1812
1757
1887
2585
2832
2101
1607
1475
1360
1502
1675
1769
1767
1789
1818
1858
1842
1857
1879
1893
1917
1927
1941
1971
2004
2064
2095
2128
2129
2105
2091
2083
2075
2028
1973
1943
1920
1872
1858
1851
1824
1837
1838
1840
1853
1847
1847
1836
1815
1831
1835
1810
1815
1819
1793
1803
1821
1799
1826
1874
1871
1871
1920
1963
1937
1891
1859
1833
1803
1791
1781
1799
1795
1770
1762
1776
1776
1797
1747
1805
2384
2943
2215
1577
1501
1371
1423
1624
1759
1789
1779
1823
1854
1862
1874
1897
1914
1905
1927
1965
1995
2014
2023
2064
2097
2124
2110
2113
2091
2035
1995
1965
1954
1907
1872
1850
1823
1817
1806
1809
1834
1837
1831
1827
1838
1857
1840
1835
1825
1840
1833
1858
1897
1919
1936
1936
1971
1962
1919
1875
1840
1838
1808
1788
1787
1785
1776
1779
1774
1777
1814
1811
1792
2244
2914
2358
1648
1529
1397
1392
1614
1739
1776
1805
1846
1842
1866
1895
1886
1895
1904
1935
1968
1981
2003
2023
2069
2109
2116
2115
2123
2100
2061
2032
1984
1943
1904
1874
1865
1834
1840
1821
1819
1828
1827
1829
1842
1835
1831
1843
1843
1825
1808
1805
1813
1837
1888
1887
1895
1905
1955
1932
1872
1840
1823
1803
1787
1776
1761
1760
1741
1738
1744
1744
1765
1776
1702
2002
2778
2549
1773
1472
1375
1328
1529
1655
1731
1766
1772
1789
1803
1828
1842
1872
1894
1899
1904
1933
1963
2000
2038
2086
2097
2095
2082
2075
2062
2023
1985
1939
1891
1868
1850
1847
1840
1825
1824
1813
1819
1812
1809
1813
1822
1837
1817
1797
1799
1794
1808
1798
1802
1799
1847
1886
1905
1879
1911
1945
1905
1875
1857
1853
1810
1793
1781
1791
1776
1774
1791
1783
1774
1804
1749
1783
2390
2885
2247
1678
1531
1361
1478
1637
1750
1777
1797
1814
1837
1849
1859
1872
1897
1920
1922
1942
1975
2001
2064
2101
2125
2133
2128
2128
2113
2070
2039
2009
1968
1890
1862
1869
1837
1823
1802
1808
1819
1809
1808
1823
1810
1797
1772
1786
1807
1797
1775
1774
1775
1744
1755
1775
1786
1791
1831
1840
1830
1865
1890
1904
1885
1846
1810
1795
1775
1778
1762
1759
1738
1758
1769
1757
1789
1773
1797
2302
2875
2261
1613
1487
1350
1398
1601
1687
1787
1807
1798
1835
1824
1840
1877
1890
1909
1934
1941
1971
1999
2017
2065
2111
2112
2107
2114
2114
2082
2027
1995
1956
1920
1906
1867
1840
1835
1825
1830
1840
1841
1847
1846
1840
1810
1830
1849
1841
1839
1849
1840
1827
1823
1883
1891
1917
1933
1958
1970
1920
1887
1856
1845
1808
1808
1827
1808
1788
1778
1774
1777
1780
1825
1769
1986
2680
2752
1873
1513
1495
1365
1486
1655
1761
1831
1831
1841
1840
1867
1887
1903
1908
1918
1952
1947
1985
2039
2096
2126
2126
2121
2128
2128
2099
2064
2006
1968
1935
1899
1872
1842
1860
1857
1853
1840
1830
1835
1840
1843
1869
1870
1843
1840
1867
1874
1874
1901
1917
1936
1968
2012
1970
1920
1875
1858
1842
1820
1791
1776
1782
1776
1783
1805
1802
1790
1812
1769
2098
2865
2550
1719
1493
1422
1389
1565
1715
1793
1791
1799
1808
1842
1863
1871
1899
1917
1934
1936
1953
1991
2029
2070
2096
2109
2117
2116
2112
2071
2032
1994
1936
1904
1881
1875
1854
1824
1826
1831
1835
1819
1818
1824
1843
1840
1824
1829
1823
1819
1838
1826
1840
1875
1902
1903
1909
1952
1947
1901
1871
1841
1818
1807
1791
1775
1766
1766
1787
1790
1771
1773
1795
1727
2011
2800
2635
1839
1531
1424
1373
1559
1708
1782
1815
1842
1857
1871
1886
1907
1938
1957
1990
2017
2021
2047
2095
2128
2170
2213
2224
2233
2241
2207
2167
2143
2121
2081
2039
2019
2011
2013
2025
2041
2041
2054
2044
2064
2083
2064
2074
2087
2088
2105
2103
2102
2112
2117
2126
2157
2207
2235
2219
2255
2317
2291
2267
2256
2233
2214
2201
2193
2183
2183
2189
2191
2190
2187
2222
2230
2187
2602
3475
2975
2252
2016
1846
1873
2075
2190
2240
2237
2249
2272
2293
2294
2304
2320
2332
2353
2368
2379
2403
2413
2429
2453
2480
2496
2480
2450
2432
2381
2329
2288
2245
2199
2157
2129
2131
2103
2100
2085
2095
2094
2082
2083
2031
2017
2010
2014
1989
1988
1978
1978
1968
1925
1945
1951
1951
1950
1969
1967
1971
2031
1991
1926
1879
1858
1827
1801
1765
1743
1733
1712
1702
1700
1687
1702
1696
1638
2077
2763
2286
1535
1338
1216
1183
1379
1515
1594
1598
1603
1625
1615
1637
1649
1649
1643
1663
1683
1711
1741
1757
1759
1815
1836
1808
1838
1819
1774
1750
1709
1662
1637
1600
1569
1555
1555
1535
1525
1527
1525
1535
1535
1535
1569
1535
1535
1535
1557
1535
1556
1573
1623
1619
1634
1653
1709
1702
1664
1635
1616
1617
1584
1567
1567
1566
1558
1553
1571
1570
1595
1621
1557
1755
2479
2543
1766
1359
1282
1173
1360
1521
1617
1639
1664
1698
1702
1718
1743
1744
1766
1792
1798
1823
1855
1902
1920
1938
1968
1989
2000
1999
1968
1930
1888
1850
1821
1791
1759
1733
1723
1715
1708
1714
1715
1725
1735
1751
1737
1728
1729
1732
1719
1714
1712
1717
1753
1776
1777
1779
1809
1847
1831
1803
1776
1741
1709
1692
1673
1665
1658
1654
1657
1654
1639
1657
1675
1598
1991
2752
2367
1647
1408
1246
1232
1436
1573
1644
1664
1694
1703
1714
1726
1744
1765
1792
1802
1806
1822
1866
1913
1930
1953
1966
1990
1995
1990
1954
1915
1882
1857
1834
1791
1761
1739
1731
1744
1755
1755
1745
1740
1740
1735
1745
1748
1744
1738
1747
1739
1734
1735
1722
1733
1769
1795
1808
1814
1856
1879
1850
1814
1803
1790
1765
1732
1725
1713
1713
1724
1715
1712
1715
1746
1695
1735
2326
2822
2224
1639
1472
1328
1441
1613
1733
1727
1765
1788
1785
1817
1859
1866
1879
1894
1920
1920
1938
1939
1974
1994
2030
2041
2030
2061
2058
2011
1984
1971
1899
1853
1858
1847
1863
1849
1831
1838
1835
1830
1827
1839
1817
1836
1844
1845
1839
1837
1809
1825
1827
1807
1831
1845
1886
1924
1907
1919
1962
1966
1921
1887
1858
1839
1824
1813
1799
1803
1805
1802
1795
1811
1829
1792
1776
2283
2961
2391
1695
1560
1423
1408
1625
1763
1805
1837
1840
1867
1917
1882
1879
1929
1946
1947
1985
2006
2035
2055
2108
2112
2118
2155
2147
2146
2117
2066
2033
2011
1971
1935
1908
1898
1881
1869
1851
1852
1887
1877
1879
1904
1872
1869
1889
1882
1878
1891
1878
1921
1968
1954
1961
2013
2001
1986
1958
1885
1885
1857
1826
1830
1863
1829
1819
1837
1834
1840
1867
1813
2128
2891
2717
1855
1579
1506
1437
1638
1755
1865
1923
1915
1915
1938
1963
1979
2003
2003
2017
2057
2096
2131
2171
2187
2196
2219
2249
2258
2224
2176
2164
2150
2111
2047
2011
2002
1965
1937
1927
1927
1936
1938
1959
1968
1941
1931
1923
1921
1931
1945
1953
1971
1998
2000
2021
2047
2025
1984
1951
1923
1900
1870
1856
1854
1846
1843
1839
1829
1825
1847
1866
1801
2221
2966
2482
1744
1567
1402
1421
1617
1744
1808
1828
1842
1857
1874
1901
1891
1904
1924
1934
1949
1968
2000
2029
2082
2096
2087
2095
2100
2099
2079
2021
1975
1952
1921
1873
1850
1838
1812
1807
1814
1808
1812
1800
1818
1813
1806
1797
1807
1801
1801
1795
1808
1808
1843
1858
1855
1870
1913
1914
1873
1829
1801
1778
1744
1742
1727
1729
1724
1718
1719
1712
1723
1747
1679
1971
2748
2517
1786
1492
1341
1296
1485
1637
1709
1714
1740
1747
1766
1782
1803
1817
1830
1847
1862
1887
1913
1936
1957
2000
2031
2032
2038
2029
2002
1967
1940
1898
1862
1824
1805
1778
1763
1760
1764
1776
1775
1776
1778
1776
1765
1755
1770
1760
1755
1756
1782
1767
1781
1808
1840
1840
1840
1883
1904
1867
1834
1815
1794
1753
1747
1742
1738
1732
1729
1722
1729
1716
1746
1681
1807
2513
2786
2096
1613
1440
1328
1479
1616
1705
1722
1761
1777
1797
1808
1825
1851
1857
1878
1895
1932
1956
1968
1997
2041
2071
2045
2046
2064
2054
2000
1990
1943
1886
1853
1840
1835
1815
1801
1799
1801
1789
1781
1782
1780
1793
1790
1766
1765
1771
1785
1785
1756
1758
1783
1819
1842
1840
1861
1894
1889
1849
1840
1840
1810
1777
1769
1774
1781
1755
1746
1749
1770
1785
1795
1729
1997
2764
2634
1859
1559
1472
1379
1566
1712
1790
1814
1839
1870
1890
1914
1931
1951
1981
2002
2034
2068
2094
2116
2151
2192
2234
2257
2278
2282
2238
2210
2205
2189
2176
2127
2082
2102
2089
2102
2100
2089
2098
2137
2146
2128
2141
2181
2177
2174
2185
2191
2222
2243
2263
2302
2327
2373
2386
2339
2289
2286
2288
2270
2237
2257
2258
2237
2237
2255
2294
2291
2320
2235
2447
3283
3313
2353
1989
2017
1877
2019
2211
2313
2335
2343
2368
2384
2416
2429
2430
2441
2455
2469
2496
2523
2539
2559
2581
2619
2608
2602
2615
2593
2545
2508
2448
2401
2347
2320
2294
2257
2255
2257
2224
2203
2208
2199
2173
2166
2170
2151
2128
2113
2141
2160
2160
2147
2167
2131
2066
2035
1996
1950
1909
1873
1839
1822
1803
1788
1781
1751
1737
1771
1698
1797
2479
2736
1930
1402
1316
1171
1302
1474
1584
1599
1594
1607
1613
1615
1619
1610
1621
1625
1648
1667
1680
1710
1727
1735
1744
1751
1769
1737
1697
1667
1623
1581
1525
1474
1443
1425
1408
1411
1408
1409
1409
1408
1410
1410
1387
1382
1387
1392
1392
1398
1430
1468
1462
1462
1507
1527
1471
1433
1406
1398
1377
1353
1344
1351
1358
1353
1361
1363
1363
1408
1344
1455
2142
2461
1769
1243
1118
1006
1175
1335
1424
1471
1498
1521
1563
1575
1605
1619
1643
1677
1691
1718
1745
1802
1837
1859
1875
1905
1913
1906
1895
1866
1831
1813
1776
1745
1723
1712
1684
1679
1687
1696
1696
1698
1716
1729
1723
1712
1711
1715
1712
1718
1713
1719
1744
1798
1821
1803
1840
1898
1885
1843
1810
1781
1773
1759
1759
1744
1744
1744
1739
1744
1744
1766
1761
1687
2065
2862
2535
1824
1565
1376
1424
1606
1722
1763
1779
1810
1825
1837
1846
1870
1887
1902
1926
1938
1967
2000
2035
2042
2064
2080
2080
2085
2101
2070
2039
2023
2002
1952
1904
1861
1851
1845
1858
1857
1837
1847
1865
1867
1845
1830
1839
1849
1841
1839
1840
1821
1809
1811
1841
1886
1955
1978
2018
2063
2023
1988
1950
1963
1936
1893
1882
1862
1863
1872
1863
1872
1856
1890
1857
1891
2494
2953
2245
1690
1586
1433
1535
1712
1808
1847
1874
1882
1904
1923
1936
1936
1915
1955
1979
1984
2018
2046
2075
2103
2118
2137
2131
2111
2110
2093
2031
1985
1958
1931
1906
1883
1851
1808
1793
1811
1825
1840
1823
1799
1816
1833
1823
1831
1813
1811
1814
1854
1866
1868
1879
1904
1938
1866
1793
1799
1792
1744
1743
1710
1714
1721
1719
1712
1702
1717
1741
1676
1938
2666
2555
1710
1417
1391
1274
1447
1637
1718
1743
1752
1769
1779
1779
1798
1840
1859
1871
1888
1899
1921
1942
1973
2023
2058
2064
2055
2039
2030
1995
1949
1913
1895
1855
1819
1795
1798
1785
1798
1799
1773
1771
1785
1778
1778
1793
1809
1809
1839
1865
1879
1895
1907
1933
1907
1855
1808
1791
1793
1782
1728
1730
1739
1739
1747
1741
1726
1761
1773
1733
2149
2878
2399
1650
1500
1360
1381
1578
1721
1776
1770
1795
1830
1845
1856
1887
1881
1899
1919
1936
1939
1967
2006
2053
2082
2080
2096
2103
2090
2067
2037
1987
1942
1897
1879
1863
1843
1830
1845
1838
1851
1846
1853
1869
1840
1841
1840
1840
1840
1841
1872
1913
1921
1920
1968
1985
1933
1884
1854
1841
1833
1810
1802
1803
1796
1799
1778
1791
1793
1828
1787
1819
2390
2927
2262
1670
1534
1388
1491
1655
1773
1811
1821
1853
1867
1879
1901
1921
1931
1942
1962
1984
2005
2032
2082
2112
2128
2138
2154
2145
2139
2111
2076
2038
2006
1959
1921
1909
1899
1897
1903
1905
1907
1919
1917
1917
1923
1937
1931
1919
1908
1921
1946
1969
2013
2016
2019
2059
2086
2069
2031
2017
2010
1983
1975
1975
1978
1971
1973
1989
1990
2003
2030
1962
2081
2832
3169
2416
1938
1787
1674
1823
1975
2080
2109
2130
2146
2160
2176
2207
2238
2250
2259
2291
2323
2371
2384
2415
2432
2475
2495
2512
2512
2477
2441
2410
2381
2332
2301
2288
2249
2246
2251
2218
2213
2237
2246
2237
2221
2202
2212
2207
2201
2187
2163
2177
2166
2187
2234
2239
2230
2256
2238
2187
2146
2114
2082
2061
2039
2028
1999
1987
1979
1974
1954
1958
1962
1891
2206
2975
2689
1930
1664
1531
1445
1644
1775
1843
1859
1856
1886
1903
1904
1893
1895
1909
1936
1936
1958
1964
1979
1987
2003
2032
2033
2032
2039
1999
1939
1897
1851
1807
1808
1785
1713
1719
1709
1680
1678
1696
1712
1711
1669
1668
1702
1677
1664
1675
1684
1715
1714
1734
1770
1766
1719
1680
1637
1598
1587
1584
1565
1521
1520
1503
1491
1514
1522
1522
1500
1584
2128
2591
1830
1239
1192
1056
1130
1328
1451
1478
1474
1502
1523
1531
1567
1586
1589
1593
1603
1629
1680
1712
1733
1744
1771
1786
1791
1793
1781
1734
1713
1701
1662
1621
1568
1561
1535
1535
1533
1520
1533
1535
1553
1553
1535
1525
1559
1590
1613
1636
1659
1664
1705
1702
1652
1622
1600
1581
1567
1535
1535
1530
1527
1522
1535
1559
1561
1593
1530
1767
2526
2511
1694
1327
1245
1168
1355
1497
1587
1615
1633
1650
1676
1686
1712
1738
1755
1759
1776
1780
1816
1840
1872
1919
1947
1966
1952
1943
1923
1904
1894
1833
1792
1778
1756
1734
1729
1714
1722
1738
1744
1758
1749
1744
1745
1754
1761
1794
1809
1845
1856
1853
1891
1879
1841
1820
1793
1781
1762
1743
1744
1734
1725
1711
1724
1727
1776
1787
1714
2107
2863
2470
1741
1535
1376
1424
1598
1703
1765
1794
1821
1840
1855
1876
1893
1902
1911
1931
1954
1995
2028
2065
2102
2128
2147
2161
2158
2170
2142
2099
2069
2035
2000
1979
1957
1937
1939
1958
1950
1951
1967
1962
1968
1968
1967
1971
1964
1971
1971
1993
2057
2022
2041
2099
2101
2058
2021
2006
2000
1974
1964
1929
1936
1934
1927
1937
1949
1953
1970
1895
2182
2994
2802
2069
1782
1621
1615
1794
1898
1943
1976
2021
2015
2043
2076
2063
2067
2085
2081
2129
2153
2181
2192
2202
2212
2256
2277
2258
2245
2227
2174
2125
2115
2065
2033
2006
1970
1968
1963
1957
1965
1949
1938
1952
1950
1936
1941
1920
1913
1917
1930
1935
1948
1953
1970
2025
2018
1969
1959
1908
1888
1870
1840
1820
1823
1811
1808
1815
1809
1794
1826
1747
1981
2748
2658
1833
1520
1428
1311
1535
1671
1738
1774
1798
1786
1809
1803
1800
1837
1851
1856
1881
1920
1931
1925
1949
1972
2001
2012
1995
2000
1982
1926
1919
1891
1807
1800
1776
1726
1728
1722
1675
1706
1728
1703
1707
1701
1680
1712
1712
1705
1765
1791
1777
1823
1847
1821
1767
1745
1734
1737
1708
1683
1701
1706
1680
1680
1722
1690
1689
1722
1674
2015
2751
2385
1596
1394
1288
1220
1424
1566
1652
1678
1695
1712
1703
1729
1744
1737
1744
1794
1791
1803
1846
1862
1881
1910
1922
1927
1934
1911
1892
1883
1840
1779
1757
1735
1698
1698
1661
1643
1667
1681
1694
1680
1685
1680
1667
1689
1727
1746
1776
1785
1822
1829
1776
1728
1710
1694
1662
1618
1616
1614
1627
1616
1616
1621
1626
1667
1637
1743
2402
2702
1922
1406
1305
1186
1362
1535
1645
1667
1680
1699
1726
1741
1755
1783
1802
1803
1840
1866
1910
1915
1930
1968
2015
2030
2023
2025
2005
1970
1933
1909
1872
1840
1812
1795
1789
1803
1782
1775
1785
1807
1809
1821
1819
1806
1792
1806
1839
1882
1901
1893
1939
1949
1904
1869
1835
1827
1808
1790
1776
1767
1765
1773
1765
1781
1779
1822
1761
1860
2530
2864
2112
1582
1472
1376
1535
1691
1770
1794
1825
1833
1861
1887
1898
1904
1930
1938
1954
1968
1990
2031
2064
2095
2106
2128
2124
2128
2096
2043
2022
1995
1951
1920
1890
1871
1861
1845
1847
1850
1858
1858
1857
1857
1862
1859
1851
1844
1830
1840
1840
1870
1909
1915
1930
1967
1963
1919
1879
1862
1840
1834
1815
1802
1811
1813
1810
1813
1803
1822
1819
1747
2163
2933
2533
1833
1603
1443
1483
1653
1774
1813
1821
1843
1869
1879
1889
1906
1923
1942
1962
1967
1991
2023
2041
2077
2109
2128
2130
2125
2112
2096
2071
2023
1996
1959
1931
1905
1884
1872
1869
1872
1872
1868
1859
1872
1872
1875
1872
1872
1872
1863
1859
1875
1910
1951
1908
1915
1957
1973
1925
1894
1874
1865
1821
1808
1810
1810
1802
1777
1774
1788
1808
1807
1721
1968
2763
2663
1918
1585
1427
1392
1588
1711
1763
1793
1822
1839
1830
1861
1877
1889
1911
1913
1939
1971
1997
2032
2055
2064
2093
2121
2121
2099
2073
2061
2009
1989
1943
1906
1891
1872
1861
1837
1831
1851
1855
1854
1850
1850
1856
1851
1839
1834
1840
1856
1856
1877
1881
1911
1942
1978
1972
1932
1882
1853
1840
1823
1799
1808
1817
1808
1783
1791
1777
1795
1812
1776
2180
2886
2401
1699
1533
1425
1407
1607
1715
1814
1841
1836
1859
1874
1871
1873
1920
1951
1949
1957
1975
2010
2019
2046
2093
2102
2119
2126
2095
2083
2054
2021
1969
1931
1904
1872
1838
1825
1856
1835
1838
1833
1837
1840
1837
1824
1840
1831
1854
1890
1906
1933
1968
1971
1936
1901
1876
1846
1820
1796
1798
1791
1781
1758
1777
1799
1783
1803
1793
1790
2246
2944
2346
1634
1535
1403
1409
1604
1749
1817
1834
1851
1869
1882
1903
1915
1933
1936
1963
2002
2011
2029
2062
2096
2132
2144
2154
2162
2157
2113
2093
2076
2042
1987
1953
1956
1957
1957
1939
1940
1941
1945
1955
1951
1962
1968
1978
1983
2019
2073
2090
2091
2128
2111
2087
2043
2006
1990
1968
1957
1970
1969
1959
1968
1968
1985
2014
2039
1984
2355
3142
2716
1945
1765
1620
1633
1842
1977
2026
2030
2064
2084
2105
2112
2127
2143
2178
2203
2199
2221
2254
2271
2301
2320
2323
2351
2352
2331
2298
2263
2222
2169
2150
2127
2092
2070
2046
2037
2037
2032
2021
2029
2018
2015
1999
1984
1970
1974
1988
2021
2043
2027
2045
2061
2043
1989
1957
1943
1913
1889
1867
1868
1875
1854
1849
1857
1856
1895
1855
1845
2385
2993
2379
1731
1584
1424
1519
1695
1790
1811
1827
1849
1878
1873
1887
1919
1923
1926
1917
1932
1936
1962
1986
2001
2020
2032
2035
2019
2000
1957
1906
1878
1830
1788
1747
1735
1714
1712
1694
1698
1690
1680
1680
1681
1665
1670
1661
1650
1638
1627
1622
1623
1632
1663
1700
1695
1707
1734
1744
1723
1681
1651
1642
1600
1585
1584
1581
1579
1583
1584
1582
1606
1599
1524
1951
2699
2294
1627
1383
1193
1251
1427
1523
1584
1607
1617
1619
1631
1648
1685
1707
1717
1739
1765
1798
1792
1808
1844
1861
1887
1904
1892
1902
1888
1843
1787
1756
1738
1701
1671
1648
1627
1628
1638
1648
1632
1618
1623
1637
1611
1615
1627
1616
1615
1627
1629
1630
1659
1679
1693
1755
1744
1725
1694
1648
1631
1619
1609
1598
1589
1595
1589
1586
1607
1609
1655
1578
1742
2448
2665
1888
1426
1371
1258
1385
1535
1655
1693
1710
1732
1747
1770
1783
1793
1818
1840
1871
1901
1916
1967
2000
2011
2026
2062
2065
2042
2074
2061
2000
1986
1946
1915
1899
1865
1857
1863
1859
1851
1857
1862
1871
1870
1860
1877
1875
1888
1881
1879
1915
1951
1949
1975
2017
2003
1959
1936
1906
1887
1871
1847
1821
1807
1833
1834
1813
1809
1855
1860
1851
2279
2978
2385
1678
1568
1471
1444
1663
1808
1853
1878
1897
1904
1926
1949
1965
1973
1979
2000
2001
2032
2071
2101
2128
2154
2160
2174
2175
2174
2150
2112
2093
2053
2003
1974
1942
1923
1904
1914
1934
1925
1911
1921
1924
1903
1904
1909
1920
1954
1997
1991
2011
2047
2031
1995
1953
1919
1904
1882
1854
1840
1835
1824
1829
1829
1834
1830
1863
1785
1979
2737
2827
1967
1572
1489
1405
1591
1729
1802
1830
1869
1866
1872
1906
1927
1938
1953
1955
1968
1990
2006
2025
2070
2114
2125
2126
2112
2115
2101
2081
2047
2011
1981
1936
1909
1901
1885
1885
1872
1877
1887
1882
1883
1872
1865
1865
1859
1860
1872
1909
1935
1936
1963
1975
1943
1904
1863
1845
1809
1807
1791
1776
1770
1769
1793
1807
1807
1831
1739
1937
2691
2703
1937
1573
1456
1369
1535
1689
1783
1791
1809
1821
1840
1853
1868
1886
1886
1898
1924
1942
1967
2000
2035
2059
2070
2085
2107
2094
2063
2026
1987
1957
1935
1894
1858
1851
1847
1849
1841
1850
1853
1847
1850
1821
1826
1829
1829
1830
1840
1824
1829
1869
1896
1879
1900
1931
1935
1890
1850
1834
1815
1792
1779
1776
1757
1767
1771
1775
1778
1799
1776
1754
2266
2886
2334
1727
1535
1376
1470
1633
1725
1762
1793
1819
1821
1840
1845
1857
1873
1883
1906
1931
1955
1983
2007
2018
2042
2071
2077
2082
2065
2043
2006
1974
1941
1914
1871
1855
1843
1847
1842
1841
1847
1855
1872
1870
1854
1838
1831
1830
1808
1801
1798
1807
1829
1840
1860
1886
1904
1904
1883
1859
1829
1787
1777
1770
1754
1744
1753
1750
1761
1751
1757
1771
1694
2087
2826
2452
1748
1520
1390
1392
1573
1680
1747
1775
1794
1798
1823
1834
1840
1842
1867
1874
1897
1925
1962
1991
2012
2032
2060
2055
2064
2071
2039
2026
2010
1963
1883
1873
1847
1815
1825
1835
1829
1824
1827
1808
1808
1811
1808
1827
1843
1830
1815
1811
1846
1875
1883
1889
1942
1950
1943
1899
1858
1823
1818
1805
1795
1809
1794
1781
1795
1787
1776
1831
1769
1907
2585
2803
1975
1535
1520
1374
1486
1666
1786
1825
1840
1861
1870
1872
1897
1930
1946
1958
1952
1961
2000
2029
2059
2099
2110
2096
2114
2123
2090
2097
2061
2008
1975
1907
1899
1883
1867
1872
1840
1829
1847
1850
1840
1841
1840
1846
1865
1865
1886
1917
1929
1948
1977
1973
1926
1877
1877
1857
1812
1795
1787
1763
1769
1789
1783
1781
1790
1819
1774
2032
2768
2632
1792
1491
1454
1377
1555
1693
1783
1808
1821
1829
1842
1872
1886
1905
1915
1935
1953
1961
2000
2019
2032
2059
2070
2112
2107
2099
2077
2054
2010
1968
1936
1902
1882
1857
1849
1838
1837
1819
1831
1841
1850
1855
1857
1840
1866
1898
1894
1906
1942
1971
1946
1887
1843
1837
1821
1808
1770
1761
1764
1767
1761
1751
1771
1808
1787
1771
2288
2946
2330
1639
1488
1345
1433
1598
1721
1789
1792
1791
1794
1839
1851
1858
1879
1893
1902
1912
1936
1979
2013
2031
2058
2067
2075
2067
2067
2032
2000
1969
1927
1902
1877
1847
1815
1808
1815
1822
1823
1828
1826
1841
1841
1822
1818
1837
1821
1818
1857
1879
1898
1921
1944
1946
1922
1891
1878
1851
1823
1827
1817
1808
1825
1838
1841
1846
1868
1866
1810
2177
2960
2643
1925
1675
1524
1568
1735
1846
1906
1926
1967
1989
1997
2019
2036
2037
2076
2099
2112
2145
2172
2203
2250
2270
2277
2294
2298
2266
2267
2247
2205
2181
2160
2102
2082
2074
2064
2074
2074
2069
2080
2079
2066
2074
2070
2062
2067
2067
2064
2068
2053
2059
2094
2110
2107
2157
2159
2145
2126
2089
2043
2047
2045
2032
2015
2000
1995
2009
2009
2000
2081
1990
2027
2719
3071
2327
1843
1699
1535
1691
1851
1920
1932
1951
1959
1970
1991
1981
2006
1998
1968
2015
2039
2037
2082
2100
2118
2157
2146
2121
2155
2153
2106
2068
2028
1987
1966
1916
1903
1895
1861
1838
1866
1862
1851
1845
1862
1869
1847
1815
1810
1822
1819
1814
1854
1894
1892
1888
1936
1938
1954
1887
1814
1838
1812
1783
1793
1761
1759
1761
1758
1753
1759
1782
1753
1807
2333
2832
2146
1535
1472
1360
1415
1584
1698
1754
1766
1787
1803
1828
1857
1840
1854
1880
1891
1900
1935
1968
1994
1985
2015
2034
2033
2061
2033
2005
1951
1933
1887
1854
1809
1759
1787
1771
1740
1731
1744
1744
1723
1701
1738
1744
1726
1713
1725
1773
1792
1771
1795
1831
1798
1755
1702
1680
1648
1648
1611
1604
1607
1603
1602
1601
1606
1648
1633
1648
2145
2787
2102
1407
1356
1213
1259
1457
1573
1635
1623
1654
1690
1703
1706
1727
1743
1738
1761
1790
1811
1851
1846
1882
1917
1919
1927
1941
1927
1904
1866
1834
1794
1771
1742
1713
1701
1691
1700
1692
1679
1680
1715
1706
1687
1710
1699
1715
1753
1778
1794
1826
1861
1842
1772
1719
1717
1704
1695
1694
1663
1639
1650
1648
1671
1673
1705
1669
1726
2354
2855
2103
1463
1374
1255
1392
1565
1663
1693
1708
1735
1762
1759
1781
1801
1808
1813
1840
1871
1904
1927
1936
1968
2012
2034
2032
2032
2012
1995
1959
1925
1893
1867
1841
1833
1809
1805
1795
1803
1815
1808
1808
1809
1809
1808
1805
1809
1821
1836
1877
1893
1917
1936
1936
1899
1849
1842
1839
1792
1781
1785
1787
1777
1789
1779
1776
1787
1827
1755
2023
2810
2661
1879
1570
1433
1386
1595
1735
1798
1820
1838
1854
1863
1866
1872
1887
1919
1937
1949
1973
2001
2027
2053
2068
2111
2125
2122
2096
2096
2064
2030
1981
1939
1917
1883
1872
1866
1867
1855
1866
1869
1868
1857
1839
1835
1829
1842
1845
1847
1840
1848
1873
1897
1893
1919
1934
1920
1891
1867
1842
1825
1821
1807
1789
1789
1779
1774
1775
1775
1800
1753
1750
2318
2896
2304
1700
1527
1370
1479
1635
1754
1774
1778
1808
1820
1831
1864
1884
1893
1903
1923
1945
1969
2005
2036
2035
2066
2096
2105
2090
2074
2043
2023
1988
1953
1904
1886
1871
1854
1863
1840
1821
1833
1846
1839
1809
1817
1824
1833
1840
1819
1795
1807
1834
1840
1882
1898
1906
1930
1921
1893
1872
1845
1823
1808
1792
1796
1779
1767
1779
1777
1787
1823
1799
1791
2299
2927
2320
1667
1535
1392
1443
1651
1758
1795
1808
1843
1859
1885
1879
1907
1918
1907
1936
1958
1986
2011
2032
2043
2078
2109
2128
2115
2105
2064
2013
1997
1982
1947
1903
1850
1827
1838
1851
1840
1830
1823
1810
1821
1813
1854
1835
1822
1826
1840
1883
1889
1904
1956
1960
1910
1872
1846
1821
1798
1761
1775
1763
1763
1757
1765
1761
1774
1808
1778
1973
2683
2740
1839
1465
1472
1363
1494
1661
1761
1791
1807
1811
1811
1851
1875
1878
1878
1885
1907
1939
1961
2003
2039
2064
2058
2063
2067
2067
2064
2038
1993
1958
1939
1887
1870
1866
1843
1822
1822
1833
1827
1821
1835
1838
1835
1840
1872
1901
1905
1922
1975
1984
1941
1901
1874
1849
1819
1795
1794
1773
1777
1777
1767
1776
1766
1785
1821
1782
2169
2945
2538
1709
1491
1359
1397
1613
1727
1779
1789
1826
1850
1852
1862
1867
1885
1910
1936
1927
1936
1971
2003
2039
2080
2070
2098
2086
2077
2056
2032
2015
1973
1929
1898
1862
1874
1861
1842
1845
1852
1850
1858
1857
1868
1840
1839
1842
1866
1906
1925
1931
1954
1963
1918
1874
1848
1834
1808
1792
1795
1777
1755
1761
1770
1764
1791
1817
1751
2077
2877
2654
1818
1520
1392
1395
1584
1717
1758
1775
1806
1820
1829
1856
1872
1901
1904
1889
1904
1930
1962
2011
2026
2032
2055
2066
2064
2071
2055
2025
1991
1968
1915
1878
1857
1840
1828
1847
1854
1854
1842
1839
1831
1826
1826
1815
1818
1810
1823
1853
1884
1897
1918
1942
1936
1907
1872
1847
1810
1799
1796
1777
1776
1772
1777
1776
1779
1798
1791
1729
2165
2907
2466
1766
1563
1392
1456
1632
1751
1795
1806
1820
1837
1854
1868
1881
1902
1919
1938
1963
1994
2007
2017
2047
2084
2103
2118
2127
2112
2096
2070
2037
2006
1985
1962
1941
1936
1933
1936
1911
1919
1923
1938
1959
1957
1955
1963
1966
1955
1943
1968
1997
2030
2034
2059
2085
2080
2057
2013
1997
1977
1953
1956
1947
1920
1952
1965
1924
1925
2000
1961
1983
2602
3111
2396
1822
1703
1568
1674
1839
1967
2005
2000
2022
2077
2091
2059
2081
2130
2133
2134
2155
2186
2235
2254
2255
2261
2281
2320
2305
2289
2271
2243
2195
2173
2135
2102
2055
2032
2042
2026
2026
2009
2000
2005
2017
2007
1990
2007
2011
2000
1982
2025
2025
2031
2064
2109
2097
2042
1997
1968
1957
1906
1873
1872
1882
1872
1858
1877
1863
1865
1882
1829
2234
2960
2512
1740
1535
1445
1426
1629
1754
1813
1817
1834
1838
1872
1894
1883
1887
1889
1879
1906
1946
1952
1981
2003
1999
2029
2033
2035
2029
2000
1962
1941
1904
1863
1815
1808
1785
1759
1759
1761
1754
1765
1761
1743
1750
1754
1750
1754
1795
1823
1833
1835
1867
1841
1807
1786
1760
1742
1701
1680
1677
1674
1643
1654
1680
1696
1663
1714
1723
1931
2679
2592
1674
1363
1293
1257
1505
1623
1647
1648
1654
1636
1674
1691
1726
1758
1782
1790
1779
1821
1847
1856
1883
1905
1926
1931
1937
1936
1919
1895
1859
1839
1808
1744
1712
1701
1702
1699
1702
1706
1678
1709
1726
1684
1798
1984
2005
2047
2083
2103
2134
2157
2139
2035
1971
1966
1914
1840
1828
1837
1787
1734
1743
1741
1739
1760
1758
1712
1968
2704
2619
1761
1390
1302
1270
1482
1618
1648
1680
1694
1693
1743
1723
1727
1753
1744
1776
1799
1786
1794
1823
1890
1910
1922
1927
1921
1939
1922
1867
1841
1814
1790
1756
1715
1697
1710
1683
1702
1719
1734
1687
1715
1714
1685
1704
1709
1696
1715
1741
1759
1786
1793
1815
1839
1854
1802
1755
1750
1714
1702
1703
1705
1718
1729
1712
1691
1695
1737
1731
1747
2307
2886
2224
1529
1398
1279
1413
1585
1703
1763
1786
1822
1803
1833
1827
1834
1873
1891
1910
1949
1971
1981
1997
2015
2041
2077
2105
2096
2102
2075
2054
2003
1974
1936
1898
1877
1859
1858
1871
1853
1823
1810
1849
1840
1833
1818
1808
1814
1815
1792
1799
1831
1848
1853
1907
1913
1909
1851
1793
1803
1793
1751
1745
1738
1735
1741
1726
1744
1735
1780
1737
1799
2446
2799
2059
1524
1459
1350
1438
1594
1735
1758
1796
1826
1840
1854
1821
1875
1898
1881
1909
1970
1967
2003
2033
2047
2081
2070
2087
2086
2109
2086
2002
1970
1965
1925
1858
1866
1860
1844
1811
1798
1826
1840
1835
1855
1847
1843
1815
1808
1840
1829
1872
1919
1910
1936
1978
1967
1941
1869
1840
1808
1806
1798
1776
1777
1785
1801
1761
1770
1804
1840
1805
2224
2933
2381
1594
1517
1427
1410
1620
1744
1808
1834
1834
1849
1875
1875
1883
1889
1920
1936
1967
1986
1983
2027
2065
2077
2099
2111
2083
2083
2089
2078
2001
1961
1938
1904
1879
1858
1850
1835
1841
1856
1862
1845
1851
1851
1857
1872
1890
1898
1936
1947
1967
2007
1989
1936
1878
1858
1863
1842
1792
1792
1778
1766
1792
1799
1779
1783
1846
1801
1966
2702
2877
1983
1526
1415
1376
1562
1719
1786
1825
1824
1813
1834
1875
1891
1879
1890
1919
1927
1941
1968
1983
1998
2043
2089
2069
2069
2082
2043
2020
2013
1985
1935
1887
1859
1843
1847
1847
1829
1829
1841
1851
1842
1843
1831
1855
1859
1840
1830
1868
1898
1915
1926
1968
1961
1937
1915
1883
1875
1856
1836
1831
1828
1805
1807
1823
1814
1809
1863
1821
1917
2586
2915
2154
1622
1503
1414
1591
1766
1851
1868
1882
1904
1939
1957
1953
1973
1984
2003
2019
2063
2091
2105
2105
2145
2181
2198
2212
2208
2189
2185
2167
2130
2100
2070
2024
2021
2010
2002
2014
2011
2000
2014
2012
1999
2016
2015
2000
2013
1998
1983
2014
2055
2068
2092
2123
2126
2114
2067
2034
2023
1981
1957
1957
1936
1921
1941
1922
1905
1921
1961
1893
1926
2509
2966
2326
1778
1617
1488
1611
1749
1853
1870
1881
1904
1918
1914
1936
1947
1962
1984
1999
1995
2014
2031
2047
2096
2096
2088
2111
2096
2063
2056
2022
1982
1935
1889
1853
1830
1831
1791
1794
1792
1779
1774
1782
1776
1762
1751
1766
1765
1744
1734
1766
1787
1790
1819
1824
1813
1811
1751
1710
1707
1691
1654
1627
1622
1617
1623
1629
1616
1630
1664
1586
1758
2427
2583
1824
1370
1279
1170
1333
1481
1600
1626
1648
1669
1663
1675
1712
1717
1713
1760
1763
1771
1814
1825
1847
1901
1919
1893
1914
1936
1908
1873
1843
1815
1798
1749
1691
1685
1687
1659
1663
1676
1671
1680
1680
1661
1690
1689
1664
1682
1696
1712
1759
1764
1777
1830
1825
1763
1742
1728
1702
1686
1669
1666
1679
1680
1681
1701
1691
1725
1762
1703
2026
2768
2538
1732
1472
1408
1338
1535
1703
1771
1823
1840
1847
1855
1872
1895
1905
1908
1950
1985
1974
2019
2043
2064
2106
2119
2117
2126
2129
2108
2080
2035
2021
1982
1954
1910
1892
1877
1894
1891
1883
1881
1909
1907
1904
1886
1904
1914
1931
1924
1963
1994
2010
2043
2065
2030
1987
1950
1931
1910
1888
1871
1865
1872
1857
1850
1871
1865
1911
1879
1930
2507
3042
2287
1659
1587
1439
1565
1761
1853
1873
1913
1947
1936
1934
1971
1984
1981
1996
2025
2027
2039
2111
2131
2134
2150
2156
2167
2174
2163
2135
2113
2077
2064
2023
1979
1946
1941
1930
1915
1925
1936
1919
1916
1904
1906
1926
1907
1889
1903
1940
1950
1968
1988
2016
2034
1974
1947
1895
1879
1847
1827
1797
1808
1808
1806
1808
1809
1815
1839
1771
1994
2747
2727
1907
1535
1429
1374
1563
1706
1769
1796
1817
1840
1830
1841
1863
1871
1877
1888
1898
1909
1946
1967
1979
2000
2015
2032
2032
2017
1995
1971
1942
1911
1872
1856
1823
1794
1773
1767
1749
1771
1778
1801
1796
1782
1769
1776
1778
1775
1758
1737
1747
1779
1818
1837
1840
1872
1872
1851
1810
1780
1766
1727
1717
1722
1708
1708
1710
1711
1712
1712
1742
1674
1779
2486
2752
2023
1535
1406
1297
1472
1623
1703
1727
1744
1759
1771
1778
1787
1812
1851
1853
1871
1893
1912
1936
1968
1983
1993
2013
2018
2032
2033
2014
1979
1925
1892
1882
1855
1809
1803
1801
1799
1790
1798
1805
1810
1806
1803
1804
1802
1799
1795
1801
1796
1800
1817
1854
1882
1873
1918
1936
1914
1894
1870
1838
1823
1802
1779
1758
1770
1775
1769
1773
1771
1797
1796
1741
2202
2895
2382
1715
1529
1375
1456
1616
1709
1770
1782
1794
1823
1843
1843
1850
1874
1904
1913
1921
1954
1970
1986
2009
2054
2064
2075
2097
2085
2064
2032
1981
1950
1939
1918
1900
1863
1847
1857
1850
1841
1841
1854
1845
1857
1871
1845
1850
1845
1849
1857
1840
1837
1867
1893
1903
1920
1968
1959
1953
1930
1887
1872
1840
1809
1802
1795
1805
1817
1819
1807
1794
1818
1807
1856
2430
2959
2199
1605
1557
1414
1479
1664
1782
1808
1826
1850
1857
1895
1904
1920
1901
1922
1938
1954
1968
2022
2061
2053
2045
2085
2099
2096
2066
2064
2055
2003
1936
1903
1887
1874
1872
1840
1841
1815
1821
1823
1823
1851
1846
1833
1825
1802
1826
1838
1822
1828
1904
1905
1899
1942
1966
1926
1872
1858
1831
1798
1787
1797
1779
1763
1774
1759
1775
1801
1819
1746
1933
2651
2783
1919
1488
1467
1365
1535
1680
1795
1809
1813
1850
1875
1874
1875
1894
1915
1930
1941
1959
1978
2002
2018
2037
2066
2081
2093
2095
2065
2017
2018
1985
1936
1918
1893
1865
1853
1842
1839
1826
1840
1843
1822
1826
1839
1842
1855
1826
1817
1842
1884
1904
1927
1954
1951
1950
1917
1875
1865
1833
1810
1779
1767
1775
1776
1765
1757
1787
1792
1815
1766
2146
2879
2473
1711
1507
1374
1402
1600
1713
1771
1798
1808
1835
1855
1867
1873
1873
1887
1902
1936
1958
1981
2015
2013
2032
2060
2066
2080
2089
2066
2019
1983
1936
1917
1884
1853
1836
1819
1810
1815
1814
1825
1829
1837
1826
1822
1807
1813
1806
1791
1792
1801
1826
1853
1871
1876
1919
1920
1901
1871
1855
1824
1776
1761
1759
1756
1761
1757
1745
1755
1746
1780
1759
1751
2321
2891
2250
1637
1470
1339
1470
1648
1729
1755
1783
1792
1824
1819
1835
1855
1877
1892
1907
1933
1953
1987
2000
2013
2032
2037
2043
2064
2073
2057
2000
1980
1948
1920
1888
1856
1841
1856
1854
1846
1847
1837
1845
1833
1843
1842
1862
1855
1850
1850
1858
1882
1899
1931
1936
1955
2011
2025
1997
1968
1958
1951
1935
1909
1891
1867
1902
1901
1923
1903
1905
1962
1903
2030
2736
2982
2239
1765
1665
1584
1749
1872
1955
2014
2032
2059
2098
2117
2119
2151
2171
2196
2218
2223
2257
2321
2336
2359
2397
2424
2402
2412
2434
2429
2397
2379
2346
2295
2289
2256
2240
2259
2242
2246
2241
2262
2275
2256
2255
2256
2259
2278
2282
2288
2249
2240
2299
2321
2338
2363
2361
2369
2337
2288
2251
2224
2189
2183
2167
2192
2178
2160
2163
2135
2159
2178
2154
2559
3367
2771
2009
1855
1744
1741
1950
2059
2112
2128
2154
2153
2158
2165
2189
2193
2181
2167
2192
2224
2214
2226
2259
2274
2267
2278
2291
2256
2222
2202
2154
2116
2065
2015
1984
1935
1910
1907
1898
1893
1859
1867
1857
1826
1829
1815
1791
1781
1797
1826
1837
1808
1846
1873
1848
1797
1723
1694
1654
1623
1626
1590
1584
1563
1535
1535
1535
1567
1575
1521
1897
2651
2273
1445
1247
1129
1120
1328
1458
1507
1535
1569
1613
1617
1633
1651
1676
1691
1719
1747
1777
1781
1810
1833
1862
1872
1873
1873
1877
1875
1839
1808
1791
1744
1709
1703
1695
1685
1680
1655
1657
1678
1679
1652
1620
1631
1646
1647
1634
1642
1680
1719
1719
1752
1770
1743
1695
1649
1634
1616
1584
1580
1582
1579
1561
1535
1535
1562
1592
1599
1535
1970
2685
2247
1477
1299
1145
1190
1389
1520
1571
1582
1584
1590
1615
1649
1668
1680
1675
1694
1717
1730
1765
1779
1795
1824
1859
1867
1855
1834
1835
1810
1776
1744
1711
1689
1670
1648
1630
1632
1646
1648
1634
1648
1663
1664
1661
1665
1678
1664
1658
1669
1679
1691
1728
1747
1744
1796
1808
1775
1744
1711
1695
1669
1673
1674
1645
1637
1637
1648
1655
1648
1706
1630
1746
2458
2714
1978
1479
1360
1264
1425
1580
1657
1674
1709
1728
1729
1732
1763
1785
1794
1808
1830
1854
1866
1876
1891
1936
1965
1971
1975
1983
1983
1958
1936
1904
1872
1830
1801
1775
1755
1760
1776
1779
1776
1791
1801
1790
1776
1763
1774
1793
1803
1795
1792
1785
1797
1828
1847
1855
1859
1887
1921
1875
1846
1824
1792
1769
1756
1756
1741
1733
1737
1744
1737
1746
1787
1691
1869
2611
2693
1936
1531
1415
1328
1509
1648
1722
1739
1766
1808
1823
1823
1842
1858
1879
1885
1891
1923
1958
1979
2011
2038
2042
2064
2074
2083
2067
2038
2007
1968
1921
1882
1890
1870
1845
1826
1830
1840
1844
1817
1840
1836
1836
1835
1824
1824
1838
1837
1821
1809
1861
1898
1908
1903
1950
1963
1936
1897
1854
1830
1808
1791
1817
1814
1791
1791
1790
1791
1798
1820
1783
1905
2559
2864
2055
1555
1506
1366
1498
1675
1799
1847
1833
1830
1859
1887
1888
1911
1927
1943
1964
1968
1985
2008
2031
2078
2102
2116
2105
2110
2096
2083
2062
2015
1999
1945
1921
1895
1870
1852
1863
1877
1872
1856
1854
1885
1882
1863
1872
1866
1867
1882
1894
1937
1951
1962
1984
2033
1990
1935
1904
1899
1863
1851
1829
1821
1808
1810
1824
1830
1821
1851
1847
1825
2227
2963
2501
1728
1535
1424
1433
1651
1779
1841
1854
1872
1872
1879
1898
1921
1938
1941
1952
1979
1997
2030
2042
2035
2069
2093
2102
2112
2101
2093
2067
2016
2006
1954
1911
1891
1866
1858
1872
1856
1847
1869
1872
1841
1840
1826
1839
1849
1834
1838
1850
1890
1913
1923
1946
1967
1927
1872
1847
1834
1811
1808
1775
1753
1744
1750
1758
1744
1750
1796
1794
1770
2244
2915
2352
1662
1488
1332
1419
1603
1711
1755
1774
1782
1813
1837
1839
1838
1850
1867
1878
1891
1907
1937
1968
1993
2012
2034
2038
2032
2039
2001
1983
1945
1917
1891
1856
1823
1793
1785
1775
1777
1772
1771
1769
1786
1792
1782
1787
1779
1776
1774
1762
1753
1763
1785
1810
1841
1845
1874
1907
1893
1840
1827
1816
1770
1786
1785
1754
1755
1763
1749
1771
1758
1799
1757
1795
2382
2870
2220
1629
1486
1346
1493
1682
1771
1773
1814
1835
1829
1877
1902
1885
1907
1936
1961
1965
1973
1997
2082
2094
2094
2114
2141
2124
2127
2103
2073
2057
2018
1985
1973
1938
1904
1925
1920
1904
1940
1937
1949
1940
1931
1923
1909
1934
1934
1939
1931
1932
1941
1945
1997
2015
2032
2071
2096
2071
2001
1959
1966
1933
1919
1920
1874
1890
1890
1891
1904
1891
1903
1886
1971
2559
3057
2246
1648
1623
1486
1535
1738
1846
1903
1917
1917
1934
1973
1973
1969
1975
2002
2014
2032
2041
2059
2086
2102
2117
2133
2147
2147
2148
2128
2085
2038
2023
1968
1942
1904
1886
1892
1873
1855
1872
1879
1870
1875
1878
1863
1858
1850
1843
1863
1872
1878
1906
1917
1931
1968
1959
1904
1872
1847
1819
1791
1761
1754
1764
1744
1744
1775
1776
1764
1799
1712
1946
2753
2736
1873
1515
1385
1321
1523
1655
1744
1779
1783
1801
1815
1821
1831
1856
1866
1863
1891
1896
1920
1946
1963
1985
2000
2021
2035
2019
1990
1970
1943
1907
1887
1863
1823
1795
1783
1792
1782
1775
1775
1789
1805
1791
1771
1773
1781
1790
1783
1766
1776
1813
1837
1853
1851
1915
1922
1878
1840
1794
1774
1767
1763
1738
1731
1733
1735
1716
1701
1712
1762
1728
1725
2299
2990
2365
1621
1425
1294
1453
1619
1712
1723
1734
1763
1765
1777
1799
1818
1842
1840
1862
1887
1899
1931
1937
1967
1981
1990
1993
2000
2001
2000
1983
1943
1905
1873
1846
1838
1820
1829
1821
1809
1815
1806
1789
1807
1811
1829
1817
1787
1779
1791
1813
1825
1795
1811
1888
1891
1891
1943
1942
1904
1858
1822
1798
1769
1773
1775
1762
1769
1765
1778
1793
1794
1793
1712
1937
2734
2774
1939
1535
1424
1413
1602
1733
1783
1791
1814
1840
1864
1872
1872
1883
1903
1930
1954
1968
1984
1996
2000
2018
2038
2068
2096
2093
2078
2067
2064
2020
1961
1921
1899
1881
1871
1875
1872
1865
1865
1863
1857
1875
1859
1841
1840
1854
1855
1850
1840
1841
1863
1909
1937
1929
1966
1999
1984
1926
1894
1877
1856
1834
1837
1834
1818
1808
1798
1802
1808
1817
1782
1785
2342
2874
2266
1701
1555
1387
1491
1647
1727
1782
1808
1832
1851
1845
1876
1875
1873
1893
1925
1942
1937
1965
2002
2011
2039
2069
2045
2032
2080
2070
2019
1990
1975
1947
1918
1874
1871
1856
1847
1842
1845
1847
1859
1856
1842
1840
1861
1855
1841
1849
1857
1846
1855
1909
1914
1932
2000
1972
1947
1937
1893
1879
1872
1859
1820
1795
1813
1813
1818
1850
1854
1859
1803
1879
2492
2950
2190
1635
1598
1449
1517
1690
1792
1856
1872
1904
1923
1936
1951
1958
1943
1963
1979
1998
2037
2054
2047
2081
2091
2096
2114
2149
2128
2096
2047
2006
2025
1970
1917
1903
1902
1877
1856
1871
1872
1869
1874
1862
1839
1837
1840
1842
1850
1874
1886
1872
1885
1935
1945
1930
1882
1855
1837
1799
1770
1743
1727
1716
1724
1731
1733
1741
1744
1758
1707
2032
2787
2518
1672
1431
1360
1302
1499
1646
1686
1722
1745
1770
1777
1781
1797
1805
1795
1838
1867
1875
1893
1907
1934
1933
1950
1979
1994
1975
1951
1936
1904
1867
1843
1822
1778
1767
1756
1755
1751
1746
1739
1723
1747
1756
1748
1728
1725
1731
1744
1787
1809
1804
1835
1874
1859
1806
1769
1744
1710
1691
1696
1692
1674
1655
1669
1702
1687
1693
1718
1680
2054
2829
2438
1650
1442
1313
1335
1535
1670
1713
1737
1752
1776
1796
1813
1831
1833
1835
1864
1895
1922
1935
1949
1983
2018
2028
2038
2043
2041
2059
2013
1981
1952
1930
1899
1885
1856
1856
1855
1845
1840
1857
1850
1853
1859
1862
1865
1861
1841
1865
1858
1878
1909
1925
1919
1953
1978
1970
1935
1908
1895
1881
1872
1857
1861
1865
1882
1901
1914
1907
1930
1923
1886
2368
3066
2500
1776
1622
1474
1531
1713
1834
1872
1888
1879
1899
1919
1925
1941
1933
1947
1967
1982
1997
2014
2043
2073
2097
2106
2095
2083
2078
2055
2032
2008
1985
1955
1918
1894
1881
1870
1867
1869
1858
1858
1856
1856
1852
1853
1863
1852
1850
1840
1851
1879
1911
1914
1933
1979
1967
1923
1875
1840
1825
1810
1798
1793
1790
1791
1785
1782
1791
1803
1829
1748
1939
2750
2912
2057
1598
1421
1427
1617
1757
1811
1838
1845
1850
1865
1871
1899
1923
1933
1941
1973
1987
2001
2032
2047
2070
2096
2096
2103
2105
2096
2085
2054
2019
1985
1956
1937
1922
1911
1900
1902
1904
1898
1904
1903
1893
1902
1897
1879
1874
1871
1871
1872
1861
1875
1926
1957
1943
1979
1986
1971
1936
1891
1862
1833
1815
1809
1797
1776
1773
1770
1776
1774
1795
1758
1742
2293
3025
2430
1679
1434
1325
1469
1627
1701
1710
1715
1730
1736
1753
1744
1757
1763
1776
1791
1804
1808
1828
1835
1855
1872
1884
1882
1883
1873
1868
1849
1818
1798
1773
1734
1712
1691
1692
1678
1685
1693
1685
1685
1680
1675
1680
1673
1671
1677
1665
1665
1664
1685
1741
1776
1771
1794
1808
1787
1741
1695
1689
1662
1650
1631
1632
1647
1632
1645
1636
1632
1669
1584
1686
2439
2925
2118
1509
1303
1268
1452
1584
1653
1655
1667
1692
1699
1716
1732
1760
1762
1774
1791
1809
1815
1831
1866
1890
1897
1899
1917
1932
1927
1923
1915
1887
1856
1823
1807
1797
1798
1805
1792
1776
1772
1783
1787
1778
1774
1776
1791
1783
1776
1771
1782
1813
1845
1865
1867
1873
1922
1939
1922
1885
1858
1854
1834
1805
1796
1797
1785
1795
1790
1786
1802
1886
1785
1869
2406
2393
1861
1664
1589
1485
1647
1744
1821
1849
1861
1881
1887
1902
1919
1937
1958
1963
1980
1997
2029
2059
2068
2097
2138
2155
2151
2155
2155
2128
2096
2034
2007
1953
1922
1923
1920
1899
1882
1874
1895
1895
1888
1870
1861
1902
1907
1875
1872
1887
1865
1855
1905
1939
1956
1963
1995
2015
2001
1970
1924
1904
1887
1873
1876
1863
1855
1861
1873
1872
1881
1884
1794
2002
2724
2895
2063
1663
1650
1491
1584
1759
1859
1901
1926
1936
1955
1977
1984
1985
1986
2006
2029
2057
2073
2093
2080
2112
2151
2159
2155
2145
2151
2160
2139
2112
2066
2031
2016
1997
1982
1968
1975
1969
1963
1963
1945
1957
1963
1970
1962
1954
1959
1975
1987
2010
2026
2094
2077
2025
1988
1949
1938
1906
1886
1859
1868
1882
1858
1865
1890
1879
1881
1856
2009
2645
2921
2106
1642
1615
1455
1558
1747
1845
1892
1915
1908
1929
1953
1962
1968
1975
1985
2001
2010
2037
2053
2079
2085
2111
2123
2128
2128
2128
2119
2095
2057
2018
1991
1957
1948
1921
1908
1898
1895
1902
1906
1894
1890
1893
1886
1883
1904
1938
1939
1955
1991
2005
1987
1959
1918
1878
1865
1840
1820
1814
1820
1807
1808
1806
1798
1814
1851
1773
2006
2768
2721
1904
1559
1472
1373
1561
1708
1795
1818
1831
1840
1857
1867
1874
1902
1920
1911
1920
1931
1968
2007
2031
2030
2039
2069
2064
2061
2041
2031
2000
1968
1930
1897
1857
1845
1849
1838
1835
1815
1837
1840
1834
1851
1837
1824
1829
1808
1798
1838
1864
1883
1898
1915
1925
1898
1869
1845
1824
1798
1797
1777
1759
1757
1750
1744
1751
1756
1801
1766
1771
2346
2900
2269
1663
1526
1372
1482
1648
1746
1777
1813
1841
1837
1843
1868
1882
1883
1904
1916
1930
1938
1973
1981
2014
2033
2033
2041
2041
2054
2039
2000
1968
1922
1887
1849
1850
1851
1820
1811
1817
1809
1817
1824
1815
1826
1811
1818
1819
1835
1808
1799
1846
1883
1879
1882
1922
1936
1887
1839
1831
1809
1794
1799
1785
1749
1746
1761
1776
1781
1775
1793
1763
1973
2724
2719
1906
1555
1484
1358
1520
1677
1766
1783
1835
1841
1858
1840
1857
1894
1927
1926
1927
1941
1968
1998
2023
2032
2066
2076
2085
2095
2080
2038
2004
1980
1951
1914
1874
1872
1853
1845
1826
1842
1857
1831
1833
1849
1833
1833
1850
1841
1824
1849
1879
1904
1906
1931
1990
1947
1921
1884
1849
1837
1823
1808
1794
1795
1806
1799
1780
1791
1801
1831
1778
1907
2559
2916
2099
1568
1513
1372
1501
1690
1786
1814
1840
1865
1873
1895
1899
1904
1920
1930
1957
1981
1979
1988
2043
2058
2064
2094
2080
2096
2099
2066
2009
1981
1957
1920
1888
1872
1863
1847
1843
1830
1844
1834
1818
1840
1847
1855
1833
1814
1835
1840
1845
1872
1910
1910
1921
1954
1947
1914
1903
1856
1827
1804
1798
1789
1771
1757
1751
1766
1762
1763
1831
1766
1873
2554
2839
2036
1561
1448
1328
1520
1695
1776
1808
1841
1836
1847
1855
1863
1891
1904
1904
1921
1948
1963
1994
2038
2032
2064
2085
2071
2081
2079
2042
2015
1970
1919
1892
1881
1856
1842
1831
1818
1819
1835
1826
1833
1827
1835
1835
1826
1810
1823
1842
1817
1802
1801
1825
1875
1906
1902
1941
1973
1929
1894
1856
1840
1826
1793
1775
1780
1786
1792
1787
1793
1793
1826
1803
1767
2320
3046
2423
1685
1500
1357
1498
1681
1762
1800
1825
1829
1852
1862
1887
1898
1909
1897
1937
1963
1973
2010
2027
2029
2039
2065
2064
2092
2085
2042
2023
2006
1965
1930
1906
1871
1859
1845
1841
1837
1849
1867
1849
1855
1838
1840
1834
1834
1837
1825
1822
1835
1815
1806
1849
1885
1879
1893
1945
1942
1907
1863
1803
1807
1803
1767
1772
1769
1765
1742
1753
1765
1759
1781
1744
1883
2530
2864
2097
1535
1447
1330
1461
1637
1757
1773
1776
1796
1833
1834
1847
1867
1888
1904
1921
1932
1964
1985
1995
2025
2044
2064
2069
2098
2090
2047
2021
1975
1948
1917
1877
1870
1855
1846
1840
1819
1815
1831
1847
1829
1839
1825
1824
1834
1824
1823
1825
1834
1829
1853
1901
1904
1907
1939
1976
1936
1895
1858
1842
1817
1795
1790
1787
1761
1766
1771
1776
1774
1798
1789
1743
2183
2941
2510
1739
1531
1389
1456
1626
1746
1780
1782
1793
1819
1842
1872
1883
1890
1903
1894
1925
1953
1967
1978
2003
2029
2047
2060
2057
2061
2026
1994
1968
1949
1935
1904
1887
1858
1827
1810
1818
1823
1819
1843
1840
1843
1839
1827
1831
1823
1815
1811
1808
1829
1875
1903
1904
1934
1958
1935
1887
1863
1840
1825
1807
1783
1767
1764
1776
1781
1778
1775
1792
1807
1729
2002
2817
2721
1885
1556
1391
1415
1606
1738
1789
1803
1808
1830
1847
1856
1856
1871
1886
1907
1927
1943
1954
1995
2018
2030
2032
2023
2034
2059
2047
2021
1999
1978
1945
1911
1886
1860
1840
1834
1826
1827
1836
1840
1840
1849
1841
1835
1833
1833
1833
1825
1817
1824
1829
1863
1889
1897
1904
1950
1967
1933
1897
1863
1848
1822
1808
1807
1802
1776
1767
1782
1793
1781
1824
1744
1842
2559
2953
2181
1637
1459
1392
1583
1705
1765
1787
1805
1827
1851
1863
1869
1886
1904
1914
1920
1925
1962
2005
2000
2005
2032
2037
2041
2055
2055
2039
2018
2000
1969
1939
1904
1879
1869
1870
1871
1847
1849
1851
1861
1871
1858
1845
1838
1846
1853
1872
1872
1855
1857
1890
1942
1925
1917
1969
1998
1948
1907
1883
1857
1840
1826
1822
1794
1790
1813
1809
1808
1822
1887
1785
1947
2655
2777
2059
1647
1521
1445
1615
1755
1841
1881
1887
1899
1917
1934
1973
1986
1965
1981
2017
2059
2060
2091
2129
2125
2161
2199
2199
2177
2187
2169
2173
2158
2112
2087
2033
2035
2012
2003
2016
2023
2020
2024
2045
2033
2028
2042
2061
2033
2060
2064
2069
2071
2096
2143
2161
2176
2224
2235
2203
2158
2135
2107
2110
2109
2111
2079
2071
2086
2091
2095
2110
2140
2053
2240
2967
3169
2306
1875
1851
1722
1830
1983
2085
2113
2125
2129
2149
2165
2194
2213
2212
2213
2226
2219
2224
2240
2250
2275
2275
2286
2282
2277
2271
2251
2228
2192
2159
2112
2082
2042
2000
1985
1982
1963
1963
1947
1923
1929
1910
1886
1874
1862
1854
1843
1885
1891
1887
1919
1926
1872
1816
1760
1735
1712
1680
1659
1631
1623
1616
1607
1606
1594
1616
1573
1566
2114
2777
2174
1434
1270
1121
1223
1394
1510
1554
1575
1589
1578
1584
1616
1616
1618
1637
1665
1678
1705
1723
1731
1773
1786
1786
1795
1814
1818
1799
1776
1758
1744
1726
1705
1673
1665
1657
1663
1663
1674
1653
1638
1659
1677
1687
1671
1675
1689
1734
1769
1773
1776
1814
1817
1771
1726
1701
1694
1662
1648
1626
1633
1644
1629
1629
1633
1649
1669
1598
1776
2523
2781
1938
1439
1307
1251
1437
1603
1672
1678
1703
1725
1726
1745
1762
1783
1808
1823
1823
1849
1872
1872
1881
1905
1930
1958
1955
1947
1940
1942
1935
1895
1865
1824
1804
1789
1775
1749
1757
1776
1780
1744
1739
1745
1751
1775
1776
1760
1754
1791
1835
1837
1847
1875
1851
1798
1763
1747
1729
1712
1702
1682
1686
1681
1696
1691
1697
1712
1664
1663
2226
2933
2352
1590
1394
1281
1407
1554
1675
1705
1716
1735
1744
1743
1747
1773
1781
1805
1815
1823
1855
1874
1915
1936
1937
1936
1943
1951
1945
1936
1903
1867
1845
1813
1791
1773
1760
1765
1761
1750
1758
1763
1771
1761
1749
1750
1738
1735
1757
1807
1830
1839
1881
1898
1872
1840
1814
1799
1795
1774
1753
1722
1711
1712
1712
1712
1709
1730
1715
1696
2207
2945
2426
1699
1477
1344
1457
1633
1730
1759
1758
1776
1793
1806
1830
1862
1869
1879
1891
1905
1925
1947
1959
1995
2010
2030
2058
2064
2037
2037
2003
1987
1963
1948
1921
1894
1870
1846
1835
1855
1842
1847
1865
1854
1840
1829
1818
1840
1841
1865
1894
1898
1896
1918
1930
1917
1867
1862
1851
1792
1786
1785
1771
1776
1779
1778
1778
1809
1822
1737
1998
2758
2686
1920
1584
1510
1390
1535
1692
1786
1828
1840
1841
1870
1891
1891
1915
1917
1946
1950
1949
1984
1997
2032
2038
2067
2105
2096
2077
2067
2066
2002
1983
1955
1918
1888
1861
1867
1845
1838
1839
1852
1848
1857
1860
1837
1837
1856
1866
1904
1933
1909
1962
1971
1933
1918
1873
1838
1810
1803
1801
1781
1776
1776
1771
1775
1765
1798
1770
1793
2359
2955
2230
1585
1505
1407
1433
1629
1735
1815
1813
1840
1867
1853
1894
1889
1885
1910
1949
1959
1969
1970
1987
2003
2047
2093
2086
2067
2061
2042
2038
2017
1943
1920
1901
1889
1878
1871
1872
1870
1873
1872
1867
1886
1891
1893
1934
1964
1973
1989
2055
2047
1969
1942
1943
1955
1919
1890
1853
1855
1853
1841
1872
1889
1883
1919
1902
1987
2608
3118
2322
1713
1649
1499
1641
1806
1917
1965
1999
2000
2003
2031
2058
2059
2075
2105
2119
2119
2149
2178
2192
2208
2222
2254
2287
2271
2245
2242
2210
2183
2147
2110
2079
2058
2039
2043
2038
2035
2058
2020
2032
2047
2046
2026
2026
2075
2098
2106
2133
2167
2117
2070
2064
2027
1992
1969
1947
1939
1927
1907
1905
1927
1917
1920
1950
1879
2155
2963
2890
2005
1653
1503
1467
1664
1791
1856
1873
1889
1905
1920
1929
1945
1949
1934
1934
1959
1983
2005
2005
2033
2063
2082
2083
2082
2076
2045
2027
1984
1951
1920
1887
1847
1840
1818
1806
1808
1808
1794
1761
1769
1762
1769
1776
1776
1776
1778
1802
1823
1830
1851
1867
1861
1820
1781
1776
1775
1754
1718
1680
1659
1653
1680
1679
1675
1689
1723
1648
1885
2663
2549
1759
1472
1335
1289
1472
1593
1650
1681
1710
1712
1719
1730
1757
1771
1779
1790
1816
1862
1863
1875
1910
1923
1955
1967
1965
1965
1937
1936
1881
1835
1805
1783
1744
1721
1728
1713
1690
1699
1693
1699
1723
1699
1697
1705
1685
1686
1691
1709
1695
1667
1722
1769
1770
1790
1820
1791
1754
1713
1715
1680
1649
1661
1651
1639
1633
1630
1654
1673
1685
1664
1680
2192
2844
2193
1493
1399
1285
1332
1527
1637
1661
1678
1715
1735
1719
1735
1782
1775
1790
1813
1839
1862
1884
1906
1939
1970
1967
1968
1997
1985
1962
1936
1905
1878
1841
1804
1795
1757
1738
1744
1738
1746
1728
1735
1728
1731
1747
1771
1761
1759
1743
1787
1822
1837
1843
1872
1871
1830
1815
1776
1754
1717
1711
1699
1703
1680
1675
1685
1699
1679
1729
1675
1795
2485
2827
2031
1518
1424
1282
1430
1612
1679
1712
1743
1759
1778
1818
1813
1822
1845
1874
1893
1910
1923
1950
1993
1986
1994
2044
2069
2064
2035
2023
1994
1957
1936
1907
1861
1856
1859
1822
1810
1840
1815
1830
1835
1829
1839
1839
1835
1838
1822
1810
1840
1894
1916
1935
1963
1965
1915
1859
1843
1840
1826
1808
1781
1790
1799
1781
1790
1792
1789
1825
1787
1895
2534
2974
2173
1595
1487
1389
1526
1680
1780
1814
1824
1845
1870
1886
1893
1914
1930
1953
1959
1962
1984
2017
2039
2067
2070
2110
2134
2118
2093
2064
2046
2015
1983
1938
1922
1906
1886
1866
1877
1872
1879
1878
1857
1861
1866
1871
1873
1887
1882
1873
1874
1847
1861
1879
1922
1921
1936
1983
1984
1958
1931
1898
1874
1840
1818
1808
1822
1813
1792
1791
1793
1814
1857
1795
1913
2599
2920
2100
1575
1470
1366
1535
1702
1767
1789
1833
1840
1840
1842
1857
1867
1899
1910
1916
1952
1966
2009
2015
2009
2035
2061
2064
2076
2080
2064
2021
1999
1936
1919
1908
1861
1855
1867
1834
1814
1819
1824
1845
1857
1831
1814
1838
1824
1819
1833
1822
1818
1830
1829
1861
1903
1904
1929
1963
1929
1892
1893
1865
1838
1805
1778
1781
1805
1803
1787
1798
1793
1821
1813
1803
2304
2992
2390
1658
1527
1392
1467
1661
1772
1815
1826
1833
1854
1869
1881
1905
1933
1932
1954
1963
1959
1968
2023
2031
2064
2093
2101
2080
2079
2064
2032
2019
1985
1946
1906
1888
1870
1891
1858
1822
1821
1834
1835
1862
1861
1858
1834
1822
1833
1858
1859
1818
1821
1872
1908
1938
1954
1983
1986
1911
1843
1838
1814
1806
1802
1794
1794
1808
1806
1791
1769
1792
1775
1808
2363
2945
2320
1643
1507
1376
1483
1652
1771
1822
1810
1815
1813
1831
1875
1874
1890
1919
1944
1941
1978
2014
2000
2002
2026
2064
2091
2069
2069
2095
2053
2016
2006
1978
1930
1886
1842
1834
1846
1845
1854
1892
1888
1881
1871
1847
1855
1872
1873
1865
1872
1856
1866
1892
1942
1965
1936
1983
1982
1950
1923
1886
1868
1849
1816
1819
1799
1790
1793
1789
1795
1798
1839
1773
1916
2608
2717
2017
1621
1501
1390
1535
1662
1776
1807
1814
1819
1839
1856
1842
1858
1873
1901
1919
1933
1938
1968
1975
2000
2029
2047
2043
2061
2042
2037
2029
1985
1927
1907
1887
1843
1840
1839
1839
1836
1849
1846
1845
1819
1819
1831
1853
1855
1834
1839
1847
1840
1890
1905
1913
1971
1974
1911
1877
1871
1865
1828
1809
1798
1798
1777
1771
1808
1805
1789
1814
1772
1878
2496
2926
2109
1552
1535
1420
1477
1660
1746
1819
1843
1851
1861
1867
1878
1913
1920
1922
1921
1966
1975
1999
2011
2021
2043
2064
2096
2090
2064
2063
2031
2000
1979
1953
1900
1867
1872
1843
1855
1852
1830
1835
1842
1856
1853
1828
1817
1840
1845
1872
1888
1935
1915
1968
1982
1943
1918
1838
1838
1818
1786
1778
1780
1794
1799
1786
1779
1782
1824
1755
1915
2607
2881
2022
1531
1503
1372
1486
1662
1769
1798
1815
1836
1853
1842
1855
1883
1885
1904
1915
1939
1965
1978
1989
2009
2024
2034
2059
2063
2045
2029
1995
1982
1926
1901
1887
1850
1830
1826
1818
1808
1811
1813
1808
1827
1818
1809
1814
1822
1842
1862
1885
1885
1930
1933
1894
1850
1821
1813
1809
1776
1751
1751
1737
1733
1744
1746
1742
1786
1747
1803
2415
2889
2150
1566
1494
1349
1461
1612
1712
1758
1771
1789
1792
1830
1857
1854
1850
1866
1887
1903
1925
1931
1946
2000
2027
2025
2029
2038
2047
2019
1969
1943
1938
1897
1857
1843
1829
1813
1802
1789
1794
1815
1813
1805
1809
1810
1815
1794
1783
1798
1829
1872
1873
1861
1900
1932
1920
1875
1822
1815
1823
1786
1774
1770
1761
1763
1754
1767
1769
1808
1761
1773
2330
2841
2234
1699
1571
1387
1485
1628
1735
1776
1797
1815
1839
1866
1877
1899
1922
1905
1902
1923
1968
1984
1979
2023
2032
2046
2055
2064
2058
2047
2017
1950
1936
1906
1872
1858
1844
1831
1808
1807
1809
1811
1829
1840
1821
1811
1790
1808
1808
1808
1834
1841
1871
1853
1875
1901
1906
1885
1853
1834
1803
1769
1761
1759
1760
1754
1744
1760
1781
1775
1782
1731
2072
2847
2559
1743
1526
1428
1359
1533
1669
1757
1786
1801
1802
1827
1843
1856
1857
1874
1893
1905
1929
1941
1949
1985
2018
2033
2039
2059
2063
2019
2000
2003
1970
1921
1890
1855
1822
1809
1819
1829
1829
1825
1804
1812
1812
1809
1841
1854
1825
1863
1890
1872
1917
1947
1958
1917
1891
1850
1847
1787
1759
1788
1797
1780
1765
1753
1750
1754
1775
1783
1808
2291
2991
2319
1581
1505
1381
1424
1613
1723
1790
1808
1828
1839
1845
1870
1877
1887
1910
1921
1936
1959
1986
2002
2026
2035
2074
2075
2064
2095
2075
2043
2012
1973
1952
1904
1872
1861
1849
1847
1859
1850
1855
1847
1853
1851
1851
1844
1851
1909
1949
1927
1943
1979
1969
1927
1880
1856
1841
1825
1809
1796
1814
1796
1761
1776
1788
1789
1827
1765
1953
2711
2838
1991
1597
1456
1370
1571
1708
1778
1790
1808
1842
1848
1858
1874
1890
1907
1910
1909
1936
1962
1999
2038
2047
2037
2045
2074
2085
2063
2034
2010
1982
1949
1919
1891
1866
1855
1851
1863
1856
1850
1847
1867
1857
1843
1843
1841
1840
1857
1877
1906
1919
1914
1941
1961
1936
1904
1874
1872
1849
1808
1799
1793
1787
1786
1808
1803
1793
1825
1839
1809
2270
2923
2385
1746
1601
1429
1493
1664
1772
1819
1841
1854
1869
1861
1901
1925
1931
1951
1969
1966
1991
2019
2032
2057
2084
2119
2112
2109
2119
2111
2066
2019
1968
1954
1921
1896
1879
1847
1827
1857
1872
1872
1855
1847
1855
1849
1835
1840
1853
1856
1822
1819
1837
1872
1899
1901
1911
1947
1936
1899
1861
1853
1835
1808
1795
1806
1808
1799
1795
1801
1793
1809
1791
1761
2224
2957
2447
1713
1535
1411
1427
1626
1744
1794
1813
1836
1835
1843
1868
1889
1908
1918
1921
1941
1959
1965
1984
2001
2032
2059
2053
2047
2058
2041
2023
1981
1957
1936
1887
1861
1856
1831
1810
1808
1819
1826
1823
1808
1822
1808
1809
1807
1808
1805
1850
1899
1902
1885
1913
1936
1904
1869
1834
1808
1776
1762
1758
1750
1753
1753
1742
1746
1744
1766
1785
1720
2063
2874
2625
1778
1511
1363
1438
1616
1711
1745
1765
1773
1799
1824
1823
1821
1840
1871
1893
1907
1909
1924
1937
1971
2006
2032
2039
2043
2033
2022
2000
1979
1939
1883
1856
1830
1824
1823
1806
1803
1808
1823
1807
1793
1807
1824
1807
1793
1783
1803
1793
1808
1803
1817
1849
1870
1862
1903
1914
1885
1840
1823
1808
1785
1771
1762
1758
1759
1746
1759
1757
1753
1808
1727
1802
2479
2781
2096
1627
1486
1374
1530
1666
1755
1776
1805
1815
1812
1809
1827
1846
1879
1885
1889
1918
1940
1939
1953
1984
2011
2055
2039
2034
2026
2018
1993
1963
1914
1887
1851
1810
1803
1805
1802
1797
1789
1792
1791
1794
1791
1801
1806
1798
1791
1786
1779
1790
1795
1807
1827
1855
1870
1897
1919
1903
1866
1845
1813
1793
1788
1762
1755
1743
1744
1773
1751
1758
1776
1776
1716
2123
2875
2431
1699
1530
1439
1381
1568
1699
1778
1790
1808
1811
1822
1855
1856
1871
1909
1888
1907
1925
1953
1974
1984
2002
2014
2029
2064
2046
2014
2003
1979
1954
1915
1885
1865
1817
1813
1840
1794
1782
1806
1813
1806
1805
1811
1827
1809
1796
1801
1806
1826
1853
1861
1899
1914
1933
1933
1904
1863
1833
1813
1806
1788
1762
1744
1744
1757
1759
1762
1775
1792
1744
1830
2398
2928
2176
1563
1509
1383
1440
1648
1742
1781
1798
1831
1835
1842
1878
1905
1888
1915
1936
1957
1966
1981
2003
2028
2039
2058
2083
2077
2087
2061
2023
2013
1968
1917
1889
1861
1861
1867
1854
1843
1837
1842
1856
1858
1855
1847
1874
1845
1838
1839
1855
1904
1920
1931
1969
1987
1936
1889
1851
1846
1821
1802
1799
1794
1787
1775
1791
1781
1762
1786
1814
1754
2136
2928
2555
1737
1520
1408
1424
1616
1712
1775
1799
1823
1840
1850
1879
1884
1879
1890
1922
1937
1962
1981
1991
2014
2042
2070
2069
2059
2071
2047
2037
2001
1963
1921
1904
1863
1856
1854
1840
1835
1840
1851
1843
1826
1834
1826
1828
1826
1833
1820
1809
1807
1810
1824
1869
1904
1901
1918
1961
1948
1895
1851
1827
1809
1787
1771
1782
1776
1777
1776
1791
1793
1799
1811
1737
2055
2842
2591
1825
1571
1453
1421
1607
1733
1793
1789
1819
1839
1856
1863
1871
1895
1907
1923
1933
1941
1981
2000
2022
2036
2070
2076
2081
2075
2074
2041
2034
1974
1945
1919
1889
1872
1840
1844
1847
1833
1825
1845
1857
1841
1825
1838
1835
1840
1840
1834
1821
1821
1818
1808
1812
1850
1883
1867
1872
1925
1926
1903
1872
1830
1817
1808
1799
1797
1782
1771
1776
1761
1762
1785
1823
1738
1953
2751
2745
1946
1569
1475
1365
1535
1683
1770
1778
1798
1829
1840
1856
1850
1872
1872
1893
1919
1936
1943
1970
2007
2030
2037
2047
2064
2047
2043
2060
2030
1988
1948
1883
1851
1859
1847
1830
1823
1829
1812
1797
1808
1830
1829
1845
1825
1808
1791
1819
1826
1810
1805
1847
1890
1910
1909
1931
1956
1901
1867
1843
1830
1793
1776
1791
1783
1767
1773
1774
1765
1758
1797
1778
1799
2283
2961
2331
1618
1511
1385
1417
1626
1713
1761
1806
1827
1829
1842
1866
1845
1863
1903
1917
1923
1920
1938
1962
2000
2025
2032
2063
2074
2047
2027
2011
1989
1950
1911
1878
1872
1857
1830
1811
1823
1823
1823
1838
1818
1838
1859
1840
1823
1840
1836
1854
1868
1874
1909
1936
1922
1967
1987
1927
1894
1885
1855
1822
1808
1803
1778
1777
1778
1802
1802
1777
1817
1805
1872
2453
2934
2182
1602
1535
1386
1488
1679
1773
1797
1817
1834
1868
1891
1878
1893
1926
1920
1935
1958
1971
1975
2022
2032
2061
2075
2078
2077
2096
2062
2037
2030
1971
1927
1904
1897
1871
1863
1851
1847
1861
1860
1877
1879
1867
1855
1867
1873
1878
1872
1866
1874
1877
1885
1909
1949
1941
1974
2013
1966
1936
1917
1899
1858
1856
1854
1840
1829
1813
1817
1849
1856
1869
1867
1819
2277
3011
2491
1794
1623
1472
1530
1702
1810
1867
1895
1893
1907
1936
1936
1942
1979
1987
2004
2021
2025
2043
2080
2096
2125
2136
2151
2157
2174
2162
2121
2099
2064
2005
1979
1959
1941
1915
1902
1920
1937
1918
1920
1907
1903
1898
1913
1901
1899
1904
1902
1893
1898
1881
1883
1933
1955
1962
1958
2011
2032
1981
1936
1913
1904
1881
1858
1846
1837
1839
1837
1826
1829
1835
1873
1813
1899
2592
2887
2174
1712
1567
1423
1577
1712
1789
1833
1831
1831
1857
1865
1870
1884
1898
1907
1933
1954
1960
1968
1979
2015
2047
2042
2035
2064
2067
2032
1993
1947
1933
1904
1859
1844
1831
1799
1789
1808
1808
1807
1792
1802
1810
1801
1798
1788
1781
1787
1787
1781
1794
1834
1830
1827
1845
1911
1904
1859
1853
1801
1764
1740
1746
1751
1744
1717
1718
1727
1719
1719
1773
1704
1840
2528
2799
2001
1506
1434
1313
1441
1603
1712
1744
1743
1760
1796
1799
1791
1836
1840
1841
1840
1878
1894
1904
1934
1968
1974
1983
2004
2009
1984
1967
1953
1922
1872
1834
1818
1791
1770
1777
1763
1744
1762
1777
1766
1759
1753
1751
1770
1776
1761
1767
1775
1761
1810
1840
1833
1875
1906
1879
1851
1799
1775
1758
1747
1724
1707
1728
1735
1725
1737
1727
1728
1756
1705
1972
2721
2686
1787
1463
1407
1335
1511
1659
1735
1744
1767
1799
1808
1809
1834
1865
1872
1856
1890
1906
1937
1967
1955
1999
2018
2031
2042
2032
2032
2013
1991
1963
1925
1882
1862
1840
1808
1805
1810
1808
1804
1813
1830
1837
1802
1808
1839
1819
1808
1827
1855
1871
1903
1911
1925
1962
1923
1875
1869
1868
1831
1792
1779
1783
1777
1761
1760
1776
1776
1776
1813
1747
1982
2753
2736
1905
1569
1458
1372
1566
1717
1781
1806
1831
1829
1840
1856
1878
1903
1906
1911
1918
1937
1968
1983
2011
2032
2032
2063
2071
2080
2064
2042
2001
1968
1930
1904
1894
1878
1862
1830
1815
1823
1814
1838
1854
1840
1851
1853
1837
1815
1826
1842
1803
1799
1805
1840
1872
1913
1904
1924
1947
1895
1863
1834
1821
1799
1792
1767
1755
1766
1762
1775
1776
1781
1807
1781
1794
2304
2970
2359
1648
1520
1408
1440
1616
1723
1770
1779
1803
1831
1851
1858
1877
1904
1920
1927
1926
1955
1968
1968
2000
2022
2055
2066
2083
2080
2047
2017
1991
1974
1949
1889
1855
1841
1834
1837
1850
1840
1849
1846
1833
1829
1843
1853
1827
1825
1837
1834
1837
1824
1868
1897
1904
1916
1956
1962
1933
1904
1857
1836
1798
1787
1786
1778
1776
1777
1776
1769
1779
1821
1800
1808
2410
3015
2335
1667
1497
1360
1495
1664
1760
1794
1830
1847
1856
1840
1853
1866
1887
1902
1905
1917
1946
1969
1997
2023
2042
2058
2064
2069
2059
2042
2019
1985
1961
1934
1899
1874
1843
1846
1846
1844
1840
1829
1837
1850
1848
1843
1846
1839
1840
1831
1824
1810
1815
1868
1903
1904
1901
1959
1962
1920
1886
1859
1841
1821
1819
1795
1782
1780
1783
1787
1791
1801
1830
1762
1809
2421
2971
2290
1676
1515
1383
1526
1680
1781
1811
1819
1831
1838
1845
1859
1879
1904
1919
1930
1961
1978
1993
2005
2014
2055
2067
2055
2061
2069
2047
2034
1989
1954
1919
1895
1887
1856
1855
1856
1842
1840
1847
1855
1845
1841
1835
1840
1845
1851
1824
1819
1808
1825
1834
1859
1893
1898
1911
1957
1963
1921
1887
1860
1838
1811
1793
1781
1785
1791
1786
1777
1781
1777
1822
1751
1824
2470
2903
2203
1665
1520
1402
1535
1695
1795
1830
1840
1828
1840
1859
1873
1891
1917
1928
1935
1926
1943
1974
1995
2011
2027
2047
2055
2035
2067
2064
2030
1990
1959
1919
1894
1877
1855
1840
1837
1830
1833
1838
1827
1840
1822
1836
1835
1837
1826
1807
1828
1837
1816
1827
1861
1869
1872
1904
1935
1933
1899
1877
1854
1835
1802
1774
1776
1776
1779
1789
1761
1776
1786
1819
1743
1936
2670
2713
1946
1571
1517
1379
1533
1662
1751
1777
1798
1831
1850
1866
1879
1882
1893
1907
1913
1936
1959
1968
1988
2010
2042
2062
2064
2039
2055
2047
2021
1987
1945
1918
1904
1874
1851
1834
1820
1823
1847
1840
1826
1815
1833
1831
1855
1834
1837
1817
1822
1853
1889
1897
1883
1905
1946
1955
1918
1904
1865
1823
1789
1773
1765
1761
1758
1776
1764
1753
1775
1806
