ecg_value
1780
1802
1764
1771
1777
1744
1797
1763
1769
1778
1759
1808
1777
1795
1811
1793
1841
1808
1822
1823
1807
1840
1802
1820
1872
1895
2000
2046
2045
1999
1905
1872
1795
1775
1753
1724
1776
1742
1771
1770
1748
1737
1585
1713
2283
3638
4095
3512
2592
1932
1535
1482
1471
1535
1598
1616
1687
1691
1739
1763
1763
1824
1808
1854
1851
1841
1872
1838
1840
1820
1782
1815
1782
1794
1776
1761
1791
1747
1765
1774
1771
1799
1771
1790
1802
1790
1839
1803
1819
1808
1807
1865
1871
1927
2011
2033
2022
1919
1885
1841
1785
1777
1713
1729
1741
1719
1759
1721
1741
1652
1553
1805
2559
4095
4095
3170
2381
1744
1483
1441
1456
1535
1557
1629
1659
1680
1738
1725
1773
1795
1793
1830
1810
1829
1819
1808
1827
1787
1794
1782
1761
1779
1735
1759
1744
1735
1766
1744
1777
1790
1778
1826
1779
1819
1815
1805
1840
1808
1822
1825
1857
1931
1949
2077
2046
1990
1947
1850
1824
1782
1745
1760
1717
1750
1733
1728
1775
1697
1596
1653
2144
3419
4095
3678
2672
1971
1584
1449
1482
1520
1569
1648
1653
1712
1738
1759
1801
1786
1840
1849
1846
1885
1831
1851
1822
1801
1825
1779
1807
1790
1771
1792
1758
1785
1767
1772
1819
1799
1823
1827
1818
1853
1818
1846
1836
1813
1841
1808
1840
1871
1902
1979
2037
2058
1989
1904
1878
1792
1793
1755
1741
1762
1728
1755
1744
1741
1712
1565
1712
2240
3499
4095
3458
2598
1936
1535
1479
1456
1535
1581
1616
1658
1677
1742
1749
1775
1834
1797
1854
1840
1839
1859
1818
1831
1808
1792
1809
1771
1794
1759
1759
1775
1744
1761
1759
1755
1794
1775
1810
1808
1815
1849
1817
1839
1823
1829
1842
1840
1925
1936
2022
2068
1996
1968
1883
1821
1821
1755
1745
1746
1744
1783
1746
1782
1713
1582
1681
2071
3034
3759
3283
2618
2058
1696
1523
1520
1600
1616
1680
1689
1719
1777
1770
1821
1812
1835
1882
1847
1875
1853
1847
1863
1808
1821
1799
1779
1804
1771
1802
1773
1779
1797
1758
1808
1794
1803
1840
1818
1861
1825
1810
1848
1819
1859
1858
1904
1964
2015
2107
2075
1987
1930
1836
1808
1757
1739
1756
1736
1773
1744
1744
1751
1585
1698
2110
2971
3643
3102
2499
2006
1685
1595
1553
1614
1631
1669
1714
1703
1776
1779
1808
1854
1835
1860
1817
1821
1857
1824
1825
1790
1814
1818
1792
1824
1792
1787
1809
1786
1834
1808
1818
1840
1808
1842
1836
1840
1865
1840
1889
1854
1853
1904
1915
1995
2023
2045
2058
1953
1927
1829
1805
1782
1703
1746
1738
1744
1758
1730
1722
1562
1713
2231
3177
3686
2963
2317
1903
1602
1552
1535
1590
1647
1662
1728
1715
1765
1809
1781
1847
1840
1854
1859
1808
1838
1806
1809
1811
1771
1808
1796
1794
1808
1774
1808
1766
1777
1795
1749
1799
1797
1819
1838
1807
1851
1806
1806
1815
1811
1899
1886
1968
2033
2003
1991
1871
1813
1776
1731
1751
1708
1725
1758
1743
1776
1733
1637
1607
1858
2651
3740
3473
2711
2121
1761
1521
1504
1568
1594
1677
1683
1716
1746
1745
1822
1803
1840
1851
1815
1861
1825
1811
1820
1777
1817
1773
1776
1801
1770
1807
1762
1769
1781
1765
1796
1773
1795
1806
1797
1847
1808
1831
1844
1815
1843
1840
1908
1949
1984
2071
2027
1983
1914
1830
1814
1746
1746
1734
1712
1759
1728
1754
1743
1634
1623
1877
2646
3923
3583
2807
2149
1743
1535
1488
1564
1584
1636
1681
1682
1744
1748
1798
1827
1811
1872
1843
1870
1866
1839
1858
1808
1807
1808
1791
1819
1776
1791
1782
1744
1777
1756
1779
1793
1776
1825
1795
1813
1840
1829
1879
1817
1819
1826
1844
1926
1930
2042
2059
2006
1977
1872
1823
1793
1748
1776
1726
1740
1745
1735
1776
1733
1667
1648
1954
2851
4009
3536
2720
2115
1729
1520
1529
1571
1601
1682
1663
1721
1754
1765
1831
1830
1872
1882
1868
1906
1862
1866
1866
1837
1866
1811
1811
1808
1808
1830
1774
1795
1787
1758
1793
1764
1808
1808
1787
1840
1808
1829
1829
1799
1840
1803
1820
1863
1895
1965
2024
2042
2009
1920
1881
1786
1767
1729
1695
1713
1682
1711
1701
1683
1699
1535
1559
1920
2887
4095
3460
2605
1943
1505
1414
1385
1447
1477
1510
1579
1584
1634
1648
1649
1701
1691
1727
1732
1719
1743
1681
1696
1670
1622
1649
1607
1622
1601
1582
1601
1535
1569
1570
1557
1598
1576
1603
1606
1594
1620
1583
1596
1591
1571
1597
1565
1578
1616
1653
1738
1803
1807
1744
1664
1648
1535
1533
1485
1442
1456
1433
1464
1457
1450
1451
1285
1319
1744
2861
4037
3249
2357
1651
1247
1186
1175
1245
1283
1322
1395
1392
1462
1473
1483
1518
1509
1569
1579
1535
1583
1535
1535
1535
1507
1524
1476
1511
1486
1470
1498
1452
1500
1486
1491
1535
1505
1562
1535
1534
1584
1555
1583
1561
1535
1597
1573
1602
1615
1670
1731
1799
1861
1799
1739
1705
1638
1616
1558
1519
1535
1533
1570
1563
1560
1587
1463
1406
1600
2352
3839
3885
2959
2153
1601
1397
1348
1424
1463
1472
1587
1591
1654
1668
1684
1743
1725
1786
1787
1783
1810
1779
1799
1776
1758
1788
1761
1806
1791
1790
1818
1781
1810
1794
1799
1847
1811
1856
1855
1853
1886
1861
1895
1872
1869
1899
1866
1905
1883
1888
1983
1982
2106
2144
2106
2065
1971
1951
1887
1858
1856
1808
1846
1832
1835
1872
1835
1787
1668
1867
2634
4095
4095
3329
2517
1979
1680
1667
1680
1713
1782
1789
1851
1868
1882
1933
1921
1974
1965
1968
2000
1954
1983
1937
1938
1951
1929
1934
1915
1908
1917
1872
1903
1871
1880
1901
1891
1922
1921
1920
1946
1922
1950
1921
1934
1953
1905
1933
1908
1907
1983
1991
2068
2142
2140
2128
2021
1983
1914
1875
1865
1811
1840
1831
1835
1849
1811
1824
1657
1699
2135
3195
4095
3695
2746
2160
1723
1629
1606
1648
1715
1725
1789
1795
1824
1870
1851
1906
1891
1904
1925
1904
1928
1895
1903
1905
1858
1885
1861
1870
1891
1862
1883
1863
1849
1872
1845
1885
1869
1888
1916
1893
1934
1904
1899
1910
1882
1908
1885
1907
1971
1970
2098
2128
2107
2063
1959
1935
1866
1823
1825
1791
1826
1814
1810
1837
1783
1728
1602
1862
2589
3824
3890
2986
2341
1881
1618
1600
1616
1655
1711
1717
1782
1799
1827
1862
1861
1918
1899
1907
1909
1885
1907
1873
1863
1858
1839
1882
1851
1872
1887
1838
1865
1833
1840
1866
1845
1897
1871
1877
1911
1897
1920
1881
1901
1908
1872
1901
1925
1991
2064
2096
2161
2079
1999
1953
1873
1877
1835
1839
1846
1831
1855
1808
1817
1763
1592
1769
2267
3545
4095
3289
2547
1968
1649
1582
1568
1625
1658
1695
1727
1726
1788
1789
1806
1819
1802
1825
1805
1828
1820
1794
1803
1749
1767
1791
1778
1814
1781
1791
1779
1747
1782
1751
1762
1781
1763
1791
1776
1792
1792
1774
1808
1763
1779
1808
1840
1895
1955
2000
1968
1888
1856
1786
1741
1713
1675
1712
1682
1701
1699
1680
1690
1535
1506
1810
2624
3715
3461
2707
2091
1622
1499
1488
1521
1574
1585
1655
1650
1681
1700
1699
1758
1743
1773
1783
1762
1798
1765
1782
1777
1759
1798
1760
1783
1780
1765
1786
1748
1760
1770
1762
1803
1779
1803
1809
1798
1849
1813
1834
1838
1839
1904
1901
1968
2064
2032
2030
1933
1907
1859
1805
1807
1770
1792
1786
1768
1798
1776
1719
1573
1699
2283
3421
3937
3235
2462
1983
1647
1589
1611
1629
1691
1683
1729
1749
1747
1795
1782
1814
1837
1813
1861
1829
1847
1839
1821
1833
1809
1825
1825
1819
1854
1814
1812
1814
1801
1835
1813
1837
1852
1841
1872
1840
1856
1858
1847
1872
1874
1944
2014
2069
2073
1978
1936
1887
1829
1830
1788
1794
1786
1777
1795
1782
1771
1644
1566
1867
2605
3750
3714
2908
2298
1792
1590
1571
1590
1648
1648
1694
1722
1734
1776
1763
1792
1799
1802
1840
1821
1837
1823
1813
1840
1822
1828
1838
1835
1863
1825
1840
1833
1818
1856
1828
1853
1856
1858
1895
1863
1890
1894
1872
1914
1923
1968
2038
2098
2112
2010
1963
1923
1871
1856
1803
1807
1803
1802
1840
1798
1793
1664
1616
1965
2747
3816
3558
2780
2258
1811
1638
1616
1631
1695
1680
1741
1744
1751
1781
1782
1855
1877
1885
1894
1846
1869
1837
1817
1842
1815
1839
1856
1819
1872
1840
1856
1837
1829
1850
1825
1846
1856
1856
1888
1849
1874
1863
1856
1917
1919
1984
2071
2055
2031
1936
1905
1859
1803
1798
1758
1777
1765
1766
1787
1773
1736
1559
1632
2143
3226
4027
3403
2559
2021
1642
1574
1572
1590
1642
1635
1691
1712
1721
1774
1754
1803
1788
1786
1811
1793
1815
1795
1776
1797
1776
1792
1799
1792
1808
1773
1798
1787
1777
1821
1791
1822
1831
1823
1867
1852
1861
1841
1840
1906
1920
1985
2063
2044
2032
1930
1900
1851
1795
1786
1744
1770
1773
1770
1793
1762
1728
1554
1646
2190
3328
4095
3505
2621
2032
1627
1531
1523
1559
1631
1642
1706
1715
1731
1776
1759
1808
1812
1824
1840
1798
1834
1816
1808
1834
1803
1822
1807
1792
1831
1798
1826
1804
1796
1827
1802
1854
1859
1856
1857
1819
1845
1840
1830
1883
1875
1958
2055
2030
2022
1936
1901
1850
1811
1813
1731
1742
1728
1742
1761
1723
1697
1503
1575
2047
3042
3751
3285
2512
1911
1454
1344
1327
1357
1414
1392
1450
1456
1454
1492
1480
1515
1488
1485
1488
1442
1462
1426
1403
1409
1377
1389
1360
1353
1359
1312
1318
1282
1269
1285
1245
1264
1239
1230
1239
1211
1200
1166
1147
1168
1173
1221
1267
1308
1293
1203
1155
1060
988
936
873
854
802
772
750
688
656
475
394
688
1493
2405
2438
1879
1232
688
482
400
391
430
422
474
483
511
548
551
606
600
612
631
601
629
596
604
616
589
605
582
582
592
555
574
542
511
534
490
507
479
475
498
464
479
443
411
429
403
474
503
612
688
653
626
556
511
495
417
418
384
386
425
384
387
294
108
93
385
1282
2021
1965
1453
887
511
320
320
380
401
482
507
573
645
682
760
807
855
928
931
1018
1017
1031
1104
1095
1171
1181
1215
1265
1248
1289
1268
1296
1338
1347
1420
1410
1438
1491
1477
1535
1525
1535
1582
1535
1610
1637
1689
1786
1847
1901
1826
1776
1760
1690
1706
1662
1648
1682
1654
1715
1695
1686
1606
1451
1699
2271
3158
3286
2726
2167
1673
1358
1264
1202
1248
1250
1265
1291
1291
1351
1354
1367
1401
1360
1396
1361
1350
1356
1307
1349
1319
1311
1319
1279
1303
1257
1225
1193
1105
1095
998
927
874
801
809
771
773
817
824
913
943
1047
1166
1250
1415
1439
1431
1413
1360
1361
1286
1269
1291
1254
1316
1312
1339
1378
1300
1233
1430
2133
3354
3807
3237
2486
1947
1654
1533
1598
1627
1712
1785
1815
1910
1925
1975
2036
2043
2106
2096
2113
2135
2112
2154
2117
2143
2176
2172
2230
2214
2224
2256
2218
2258
2223
2241
2273
2254
2317
2309
2342
2366
2345
2384
2367
2397
2478
2485
2607
2658
2671
2631
2531
2509
2417
2384
2358
2286
2303
2271
2273
2289
2252
2226
2080
2205
2861
4095
4095
4095
4033
2981
2399
2215
2121
2134
2189
2192
2270
2249
2282
2303
2288
2320
2294
2289
2288
2225
2219
2154
2118
2079
2010
2015
1977
1994
2002
1957
1989
1968
1994
2010
1995
2045
2034
2060
2091
2066
2115
2092
2096
2112
2084
2148
2160
2209
2317
2337
2359
2256
2192
2155
2073
2077
2016
2032
2047
2013
2041
2018
2001
1901
1822
2143
3046
4095
4095
3817
2847
2148
1846
1771
1744
1813
1822
1867
1904
1894
1957
1919
1953
1985
1967
2017
1994
1987
1979
1929
1963
1908
1919
1916
1872
1891
1853
1855
1878
1833
1871
1829
1843
1869
1842
1902
1861
1883
1907
1891
1913
1872
1913
1973
1965
2075
2114
2119
2080
1966
1965
1887
1867
1851
1774
1837
1806
1829
1855
1823
1793
1619
1780
2412
3713
4095
3697
2769
2107
1666
1583
1535
1595
1649
1703
1810
1815
1865
1919
1917
1985
1968
2005
2006
1979
2023
1984
1993
1991
1962
1990
1943
1946
1958
1926
1973
1936
1972
1987
1951
1987
1965
1994
2007
1997
2036
2010
2020
2031
1991
2085
2080
2128
2209
2199
2217
2100
2047
2011
1938
1959
1888
1919
1910
1876
1920
1877
1837
1691
1781
2326
3390
4095
3581
2718
2194
1781
1665
1628
1632
1702
1690
1750
1802
1811
1869
1809
1851
1872
1851
1894
1856
1874
1879
1827
1863
1818
1850
1840
1813
1845
1815
1833
1819
1775
1830
1809
1857
1875
1863
1919
1873
1883
1903
1891
1935
1893
1977
2003
2027
2157
2096
2085
2000
1925
1940
1835
1822
1808
1792
1855
1827
1874
1875
1745
1654
1857
2477
3526
3696
3129
2449
2022
1713
1607
1653
1663
1696
1759
1758
1839
1814
1871
1885
1879
1944
1911
1936
1946
1898
1948
1882
1890
1875
1855
1888
1856
1879
1866
1830
1881
1833
1843
1844
1826
1878
1844
1872
1853
1851
1879
1841
1867
1845
1891
1963
1968
2098
2062
1979
1930
1837
1807
1763
1725
1743
1696
1716
1718
1690
1722
1609
1506
1606
2244
4048
4095
4048
2737
1888
1479
1322
1361
1399
1443
1535
1535
1591
1621
1652
1710
1684
1742
1744
1720
1773
1719
1744
1714
1712
1751
1699
1722
1728
1719
1735
1686
1712
1707
1708
1758
1717
1743
1731
1724
1761
1721
1751
1753
1743
1794
1824
1899
1995
1998
1965
1847
1841
1791
1723
1718
1648
1678
1655
1651
1701
1675
1689
1521
1471
1871
2997
4095
4095
3338
2287
1563
1325
1293
1306
1404
1444
1535
1575
1596
1654
1637
1696
1699
1709
1754
1735
1748
1730
1693
1726
1682
1712
1680
1680
1710
1660
1691
1679
1662
1697
1665
1693
1697
1694
1730
1707
1739
1728
1704
1747
1703
1754
1793
1823
1937
1934
1919
1833
1761
1744
1654
1664
1616
1599
1631
1590
1621
1611
1583
1488
1385
1713
2636
4003
4095
2993
2166
1511
1264
1270
1264
1356
1391
1442
1510
1515
1575
1535
1562
1616
1602
1651
1642
1633
1648
1615
1630
1616
1595
1607
1564
1593
1582
1558
1573
1525
1579
1559
1566
1602
1582
1603
1593
1584
1616
1585
1627
1611
1603
1686
1675
1777
1835
1823
1811
1695
1680
1617
1584
1586
1535
1574
1561
1564
1595
1557
1486
1338
1520
2221
3250
3648
2991
2256
1691
1331
1303
1320
1374
1447
1455
1526
1535
1561
1622
1605
1664
1659
1665
1723
1689
1720
1687
1687
1715
1663
1717
1705
1690
1721
1679
1713
1689
1691
1739
1718
1761
1746
1773
1809
1802
1834
1808
1807
1839
1806
1859
1897
1909
2018
2061
2096
2017
1945
1919
1845
1851
1802
1787
1837
1802
1841
1821
1808
1728
1600
1895
2559
3715
3958
3152
2519
1967
1678
1631
1621
1709
1727
1759
1824
1812
1881
1872
1901
1947
1932
1978
1956
1947
1968
1921
1950
1918
1915
1936
1885
1917
1890
1879
1889
1855
1909
1868
1877
1921
1887
1929
1890
1887
1899
1853
1890
1856
1839
1878
1872
1935
1981
2027
2007
1881
1848
1744
1696
1657
1601
1629
1578
1566
1583
1505
1506
1306
1285
1658
2506
3358
3091
2366
1728
1207
1053
975
977
1023
1017
1082
1060
1070
1099
1042
1059
982
950
926
855
851
775
718
702
626
642
582
550
527
439
459
384
349
344
294
321
286
272
285
240
256
199
183
187
144
170
171
214
282
359
435
383
318
266
176
167
97
81
112
75
135
135
165
167
9
120
528
1651
2346
2148
1521
867
465
362
320
406
432
528
631
665
789
829
911
1003
1045
1168
1199
1253
1296
1291
1356
1329
1375
1434
1453
1535
1563
1631
1731
1824
2026
2179
2385
2559
2729
3002
3290
3726
4095
4095
4095
4095
4095
4095
4095
4095
4095
4095
4095
4095
4095
3897
3635
3412
3245
3282
3295
3409
3536
3551
3661
3393
3290
3727
4095
4095
4095
4095
4095
4095
4095
4095
3984
3783
3679
3807
3798
3939
4063
4095
4095
4095
4095
4095
4095
4095
4095
4095
4095
4095
4095
4095
4095
4095
4095
4095
4095
4095
4095
4095
4095
4039
3865
3775
3643
3626
3490
3483
3447
3408
3490
3499
3616
3853
4054
4095
4095
4048
3963
3809
3795
3676
3688
3633
3583
3653
3532
3499
3263
2955
3071
3799
4095
4095
4095
4095
3952
3036
2625
2395
2367
2297
2314
2290
2217
2222
2118
2114
2076
2010
1995
1904
1861
1818
1734
1719
1612
1573
1520
1456
1435
1331
1328
1266
1194
1191
1127
1139
1134
1118
1151
1113
1157
1136
1104
1135
1078
1109
1141
1155
1296
1299
1326
1275
1194
1191
1132
1131
1117
1099
1168
1159
1229
1233
1211
1122
1034
1360
2286
3366
3673
2822
2084
1466
1177
1156
1145
1200
1239
1255
1328
1321
1391
1408
1405
1456
1424
1469
1467
1461
1517
1462
1481
1474
1440
1469
1449
1467
1452
1423
1472
1431
1467
1472
1470
1529
1491
1535
1583
1589
1651
1612
1645
1649
1680
1767
1806
1936
1930
1872
1835
1754
1771
1723
1676
1711
1665
1709
1723
1745
1794
1661
1584
1760
2370
3711
4095
3856
2926
2253
1910
1743
1779
1790
1817
1882
1887
1962
1959
1942
1995
1969
2006
1995
1970
1982
1925
1947
1922
1904
1919
1870
1887
1863
1839
1871
1813
1841
1835
1839
1879
1850
1881
1882
1873
1922
1883
1931
1889
1875
1955
1952
2046
2128
2124
2127
2030
2000
1933
1892
1901
1838
1873
1854
1857
1898
1844
1816
1669
1837
2384
3309
3776
3229
2583
2143
1763
1702
1666
1662
1729
1713
1776
1779
1792
1859
1837
1893
1882
1862
1892
1856
1881
1867
1857
1872
1826
1851
1812
1802
1835
1781
1831
1805
1798
1853
1807
1853
1835
1841
1901
1840
1872
1847
1843
1869
1844
1920
1936
2013
2082
1985
1946
1868
1824
1826
1759
1776
1749
1744
1776
1744
1790
1685
1535
1776
2290
3325
3583
3009
2442
1970
1715
1603
1600
1650
1638
1713
1710
1725
1773
1747
1815
1808
1830
1862
1824
1850
1814
1811
1846
1808
1845
1808
1803
1844
1794
1840
1807
1785
1818
1775
1823
1797
1808
1840
1805
1849
1830
1830
1847
1810
1903
1903
1968
2096
2047
2041
1950
1885
1872
1792
1808
1756
1765
1792
1750
1791
1763
1701
1587
1678
2268
3423
3984
3283
2466
1981
1663
1587
1619
1617
1708
1703
1731
1791
1766
1843
1850
1861
1895
1862
1920
1890
1875
1902
1853
1891
1859
1870
1889
1856
1879
1854
1863
1879
1853
1910
1874
1888
1905
1884
1936
1910
1930
1941
1911
1953
1970
2007
2079
2131
2171
2096
2039
2014
1936
1936
1865
1841
1847
1815
1862
1829
1842
1840
1664
1706
2045
3137
4095
4095
3047
2227
1749
1620
1574
1651
1649
1690
1727
1714
1776
1786
1797
1829
1819
1872
1854
1840
1863
1827
1858
1822
1808
1828
1787
1817
1776
1776
1792
1746
1788
1747
1765
1794
1757
1810
1791
1808
1829
1791
1838
1805
1831
1895
1899
2015
2064
2033
1999
1894
1907
1819
1790
1786
1745
1778
1754
1782
1808
1757
1717
1554
1722
2384
3702
4095
3663
2703
2032
1607
1553
1509
1565
1633
1635
1712
1701
1735
1776
1772
1822
1792
1813
1837
1791
1838
1791
1792
1803
1744
1793
1741
1757
1756
1716
1766
1734
1744
1755
1726
1776
1731
1749
1783
1758
1808
1771
1783
1798
1786
1869
1853
1965
2034
1988
1983
1863
1825
1803
1743
1767
1712
1735
1764
1728
1783
1724
1634
1569
1818
2675
3869
4063
3163
2375
1840
1522
1507
1535
1563
1651
1651
1712
1745
1741
1833
1812
1847
1878
1865
1904
1857
1874
1875
1833
1850
1808
1841
1834
1792
1805
1786
1802
1803
1779
1825
1808
1847
1857
1839
1872
1847
1872
1886
1849
1904
1911
1959
2007
2080
2128
2046
1997
1947
1883
1879
1811
1822
1831
1813
1856
1831
1839
1790
1618
1767
2194
3265
4080
3553
2814
2192
1795
1652
1622
1710
1705
1758
1787
1796
1867
1839
1889
1918
1906
1936
1910
1917
1914
1877
1922
1859
1863
1871
1853
1889
1855
1857
1863
1825
1881
1840
1870
1876
1863
1920
1876
1919
1927
1903
1938
1895
1930
1959
1950
2047
2075
2103
2066
1968
1953
1868
1865
1831
1769
1819
1763
1802
1803
1771
1742
1583
1830
2434
3455
3748
3012
2411
1957
1631
1614
1572
1635
1660
1675
1737
1722
1766
1786
1791
1847
1811
1846
1833
1808
1847
1787
1801
1795
1761
1808
1780
1818
1824
1804
1849
1797
1843
1837
1811
1868
1843
1891
1895
1898
1932
1873
1902
1898
1924
2014
1970
2097
2133
2091
2064
1951
1933
1872
1833
1833
1770
1803
1789
1771
1815
1759
1680
1587
1847
2810
4095
4095
3455
2442
1840
1513
1488
1506
1522
1610
1609
1682
1709
1707
1767
1737
1773
1777
1776
1819
1764
1787
1777
1732
1763
1718
1755
1735
1727
1762
1712
1737
1723
1712
1757
1709
1749
1754
1745
1776
1738
1776
1771
1761
1782
1744
1840
1866
1918
2041
1967
1927
1858
1787
1776
1685
1712
1676
1659
1713
1648
1700
1679
1595
1488
1575
2293
3991
4095
3967
2668
1877
1470
1363
1421
1434
1498
1523
1573
1641
1611
1675
1691
1692
1744
1726
1777
1765
1726
1756
1726
1754
1728
1701
1742
1708
1745
1723
1701
1737
1702
1743
1745
1751
1808
1776
1814
1797
1788
1831
1791
1839
1810
1872
1934
1947
2076
2032
1959
1919
1843
1836
1775
1744
1749
1693
1747
1738
1723
1749
1650
1535
1641
2253
3877
4095
4029
2800
1987
1589
1411
1449
1459
1492
1584
1572
1643
1637
1648
1705
1683
1745
1742
1741
1776
1738
1776
1746
1738
1764
1725
1787
1759
1744
1777
1743
1766
1745
1745
1775
1758
1807
1805
1805
1838
1802
1856
1841
1842
1883
1898
1961
1995
2086
2098
2007
1980
1917
1862
1857
1783
1808
1790
1794
1841
1803
1847
1757
1600
1730
2214
3428
4095
3749
2821
2115
1730
1577
1584
1645
1629
1701
1728
1765
1795
1776
1846
1861
1857
1895
1866
1895
1856
1860
1879
1835
1856
1838
1851
1872
1823
1861
1808
1769
1749
1698
1774
1846
1863
1911
1911
1947
1920
1904
1911
1867
1902
1878
1904
1969
2030
2070
1995
1915
1879
1805
1807
1731
1723
1744
1709
1739
1721
1715
1694
1490
1567
1911
2878
3833
3634
2835
2151
1648
1459
1397
1467
1479
1535
1594
1585
1642
1650
1667
1713
1712
1776
1753
1751
1770
1744
1776
1751
1744
1760
1719
1749
1717
1724
1721
1686
1729
1712
1728
1755
1734
1777
1747
1776
1809
1772
1820
1776
1782
1855
1853
1983
2032
2021
1986
1865
1875
1797
1762
1759
1718
1763
1733
1755
1770
1731
1680
1535
1738
2395
3471
4095
3400
2581
1953
1568
1517
1494
1533
1598
1602
1678
1680
1710
1757
1743
1806
1789
1819
1840
1798
1838
1807
1811
1819
1791
1838
1804
1799
1807
1776
1820
1783
1791
1824
1807
1865
1833
1853
1873
1853
1897
1871
1893
1914
1906
1991
1983
2102
2128
2063
2027
1945
1914
1875
1826
1841
1809
1823
1846
1818
1857
1786
1645
1694
2067
3119
4095
3979
3008
2277
1810
1591
1595
1627
1630
1719
1727
1771
1808
1801
1875
1866
1893
1910
1890
1934
1884
1889
1904
1879
1936
1893
1887
1902
1866
1894
1861
1858
1868
1850
1910
1872
1895
1922
1881
1924
1879
1904
1915
1883
1937
1935
1971
2095
2108
2097
1985
1946
1904
1837
1841
1786
1793
1810
1797
1827
1788
1789
1670
1596
1949
2769
4011
4095
3157
2421
1808
1573
1522
1514
1602
1607
1670
1713
1722
1789
1763
1807
1851
1829
1883
1842
1859
1872
1846
1881
1835
1828
1830
1805
1835
1803
1819
1826
1805
1856
1810
1831
1855
1845
1883
1856
1877
1873
1841
1882
1847
1921
1946
1989
2122
2064
2026
1951
1885
1893
1810
1813
1793
1768
1823
1802
1809
1795
1695
1629
1791
2365
3419
3767
3262
2499
2000
1674
1559
1617
1602
1664
1701
1709
1775
1761
1815
1852
1839
1886
1840
1856
1856
1840
1878
1841
1858
1846
1803
1847
1783
1822
1847
1795
1818
1782
1818
1826
1811
1868
1834
1883
1903
1872
1907
1872
1904
1943
1945
2030
2064
2110
2090
1972
1936
1856
1840
1813
1776
1821
1771
1802
1813
1797
1769
1584
1792
2323
3314
3801
3093
2449
1997
1664
1616
1574
1648
1662
1674
1744
1725
1777
1795
1806
1860
1840
1853
1843
1823
1844
1793
1813
1803
1776
1799
1760
1790
1779
1763
1805
1747
1779
1774
1759
1807
1777
1819
1795
1776
1810
1774
1802
1811
1840
1904
1926
2020
2000
1936
1904
1808
1799
1765
1708
1737
1685
1729
1722
1713
1759
1644
1552
1730
2310
3523
3815
3109
2394
1860
1590
1459
1514
1535
1576
1646
1644
1695
1722
1743
1798
1762
1814
1827
1813
1862
1798
1815
1790
1771
1793
1753
1770
1757
1745
1780
1732
1770
1775
1751
1807
1770
1811
1807
1802
1840
1805
1835
1831
1833
1923
1913
2023
2054
2005
1989
1872
1856
1805
1740
1757
1691
1731
1735
1725
1771
1726
1654
1521
1749
2559
4095
4095
3317
2397
1805
1481
1465
1488
1520
1600
1629
1692
1712
1738
1809
1793
1843
1856
1862
1907
1860
1887
1870
1853
1890
1835
1859
1846
1831
1866
1817
1841
1835
1830
1872
1830
1872
1873
1869
1898
1868
1904
1889
1879
1913
1925
1980
2032
2100
2105
2002
1961
1903
1851
1841
1776
1783
1756
1763
1799
1761
1813
1726
1584
1699
2282
3794
4095
3878
2769
1994
1600
1473
1475
1535
1559
1645
1661
1699
1756
1746
1794
1814
1836
1874
1853
1893
1875
1865
1872
1823
1840
1809
1802
1823
1792
1824
1792
1779
1815
1776
1823
1808
1809
1859
1835
1872
1857
1837
1860
1829
1882
1910
1939
2081
2081
2073
1984
1926
1917
1839
1825
1783
1771
1803
1770
1815
1797
1781
1700
1590
1879
2779
4095
4095
3398
2501
1843
1562
1533
1533
1609
1638
1679
1733
1719
1770
1790
1807
1854
1837
1883
1872
1865
1893
1845
1883
1843
1838
1843
1806
1830
1799
1794
1815
1786
1829
1807
1825
1856
1820
1852
1830
1847
1862
1840
1877
1877
1920
1970
2034
2102
2037
1967
1937
1856
1840
1776
1750
1776
1743
1782
1761
1764
1754
1590
1623
1978
3010
4095
3982
2964
2213
1703
1523
1486
1563
1584
1614
1664
1661
1738
1742
1767
1826
1806
1858
1834
1838
1856
1819
1849
1804
1799
1822
1787
1808
1779
1778
1777
1768
1815
1787
1793
1823
1799
1844
1814
1809
1825
1785
1821
1806
1855
1904
1941
2035
1986
1939
1897
1818
1811
1735
1725
1728
1686
1729
1701
1717
1734
1610
1556
1761
2451
3536
3509
2893
2266
1846
1619
1533
1610
1589
1619
1679
1662
1729
1730
1772
1807
1801
1865
1844
1857
1872
1841
1873
1830
1822
1831
1799
1837
1825
1926
1995
1970
2000
1961
1979
2000
1959
2016
1962
1958
1971
1938
1967
1931
1977
2030
2012
2127
2098
2085
2018
1920
1917
1840
1831
1823
1778
1823
1795
1814
1807
1717
1595
1705
2202
3150
3539
3031
2375
1977
1718
1584
1619
1616
1648
1682
1681
1734
1716
1755
1794
1776
1828
1785
1806
1808
1774
1810
1770
1765
1767
1742
1780
1729
1744
1746
1709
1759
1719
1745
1774
1744
1802
1766
1785
1792
1775
1826
1776
1802
1850
1847
1956
1981
1994
1955
1865
1856
1767
1755
1743
1696
1740
1702
1735
1731
1707
1669
1522
1781
2418
3507
3662
2859
2249
1829
1535
1564
1535
1599
1639
1648
1718
1700
1754
1783
1777
1830
1808
1840
1841
1819
1851
1792
1812
1827
1791
1827
1795
1826
1818
1803
1843
1795
1840
1841
1823
1872
1851
1886
1886
1867
1931
1887
1908
1919
1955
2023
2058
2151
2117
2032
1998
1917
1891
1856
1797
1821
1789
1808
1809
1787
1833
1712
1610
1771
2427
4007
4095
3452
2512
1889
1631
1553
1590
1611
1621
1697
1681
1728
1759
1746
1809
1789
1839
1861
1841
1869
1829
1853
1838
1805
1830
1785
1810
1797
1778
1792
1752
1787
1787
1765
1813
1776
1810
1816
1806
1843
1806
1839
1818
1801
1889
1874
1961
2063
2009
2007
1904
1900
1845
1776
1776
1717
1737
1750
1744
1791
1738
1714
1574
1622
2146
3281
4095
3671
2649
2029
1589
1519
1525
1555
1627
1630
1681
1712
1723
1776
1747
1808
1825
1825
1879
1842
1866
1844
1813
1847
1801
1818
1796
1781
1815
1764
1795
1776
1752
1791
1759
1792
1790
1797
1838
1803
1837
1818
1808
1849
1814
1889
1914
1959
2083
1998
1995
1936
1873
1869
1779
1783
1754
1744
1782
1757
1795
1790
1694
1601
1703
2351
3644
4095
3454
2509
1936
1611
1527
1582
1586
1654
1668
1681
1745
1743
1800
1811
1815
1872
1843
1885
1875
1868
1884
1844
1862
1847
1837
1851
1813
1846
1808
1803
1828
1783
1837
1815
1808
1856
1825
1867
1845
1849
1871
1839
1883
1867
1910
1968
2002
2125
2081
2011
1966
1871
1866
1815
1780
1799
1763
1794
1780
1773
1804
1650
1595
1826
2559
3891
3995
3182
2398
1831
1599
1514
1559
1584
1614
1679
1680
1744
1750
1771
1818
1799
1843
1829
1824
1858
1813
1829
1798
1795
1814
1776
1805
1776
1767
1798
1747
1776
1755
1756
1799
1776
1814
1797
1802
1838
1807
1837
1809
1813
1870
1872
1951
2032
2026
1995
1892
1873
1830
1794
1782
1722
1743
1722
1749
1791
1745
1703
1526
1644
2161
3253
4095
3515
2630
2023
1606
1535
1520
1555
1611
1622
1684
1694
1714
1765
1749
1815
1813
1825
1849
1821
1856
1825
1808
1817
1781
1824
1806
1799
1819
1783
1820
1787
1777
1808
1792
1833
1820
1837
1849
1825
1871
1853
1852
1849
1827
1907
1917
1982
2097
2032
2027
1927
1875
1863
1783
1777
1739
1759
1776
1761
1791
1773
1695
1601
1743
2385
3568
4000
3303
2470
1946
1648
1599
1623
1617
1690
1690
1731
1775
1770
1810
1809
1838
1873
1840
1873
1857
1856
1862
1828
1853
1815
1814
1842
1801
1825
1792
1796
1812
1776
1815
1798
1814
1840
1829
1863
1847
1862
1872
1843
1879
1863
1925
1970
2033
2107
2046
2000
1951
1885
1879
1823
1812
1804
1774
1803
1783
1805
1795
1650
1639
1904
2735
4009
3983
3120
2352
1822
1611
1535
1599
1608
1662
1701
1710
1779
1773
1808
1840
1818
1883
1856
1879
1886
1850
1867
1829
1837
1840
1810
1834
1813
1805
1811
1791
1824
1790
1815
1849
1831
1861
1842
1872
1883
1847
1874
1840
1863
1905
1935
2001
2064
2103
2081
1977
1936
1872
1851
1821
1787
1811
1801
1803
1818
1802
1779
1609
1695
2130
3056
3854
3370
2666
2157
1738
1626
1587
1622
1686
1707
1763
1755
1796
1833
1826
1891
1861
1879
1901
1865
1904
1861
1866
1879
1857
1899
1866
1866
1869
1833
1867
1840
1851
1871
1854
1885
1857
1892
1904
1880
1931
1886
1908
1904
1894
1968
1965
2075
2113
2063
2032
1923
1897
1857
1797
1809
1763
1779
1799
1776
1819
1728
1589
1648
2043
3056
3822
3383
2634
2067
1712
1520
1535
1575
1578
1648
1648
1694
1722
1719
1767
1758
1792
1806
1774
1808
1775
1773
1776
1729
1777
1741
1748
1763
1737
1757
1730
1743
1744
1733
1767
1741
1766
1778
1771
1808
1776
1795
1798
1792
1846
1842
1906
2003
2003
2001
1904
1853
1818
1750
1746
1687
1701
1713
1687
1738
1727
1706
1583
1535
1940
2941
4095
3984
2901
2178
1647
1479
1475
1488
1570
1587
1647
1674
1667
1712
1723
1776
1794
1791
1829
1800
1821
1807
1783
1808
1769
1789
1785
1766
1797
1761
1774
1771
1762
1796
1776
1808
1809
1799
1838
1823
1853
1853
1836
1865
1831
1907
1921
1965
2087
2038
2011
1936
1853
1854
1775
1775
1754
1751
1787
1759
1785
1776
1691
1601
1722
2363
3698
4095
3535
2559
1966
1610
1501
1535
1561
1625
1674
1698
1747
1750
1786
1803
1805
1860
1840
1866
1858
1840
1850
1802
1815
1813
1790
1804
1759
1783
1780
1754
1779
1751
1789
1791
1782
1850
1818
1836
1829
1825
1857
1808
1843
1865
1886
1965
2031
2073
2021
1931
1907
1825
1815
1780
1744
1785
1753
1797
1787
1777
1750
1580
1679
2160
3297
4095
3648
2747
2080
1642
1535
1515
1581
1606
1648
1712
1702
1766
1776
1792
1845
1818
1863
1861
1857
1897
1841
1856
1827
1809
1834
1798
1817
1783
1751
1787
1760
1793
1778
1768
1811
1771
1814
1820
1815
1840
1805
1810
1803
1838
1933
1950
2069
2062
2000
1955
1855
1840
1791
1747
1769
1733
1776
1776
1776
1815
1741
1619
1713
2159
3140
3687
3241
2595
2096
1776
1599
1633
1648
1663
1725
1735
1805
1817
1818
1875
1851
1904
1901
1894
1920
1890
1916
1875
1840
1840
1801
1840
1822
1780
1802
1763
1806
1783
1782
1829
1776
1810
1803
1818
1869
1808
1830
1828
1826
1901
1902
1994
2063
2072
2043
1898
1870
1813
1806
1831
1782
1799
1795
1806
1839
1803
1771
1622
1841
2433
3377
3713
3030
2405
2007
1726
1701
1639
1626
1680
1727
1805
1812
1834
1871
1828
1895
1899
1893
1920
1878
1943
1907
1885
1889
1853
1875
1856
1869
1910
1867
1905
1862
1867
1919
1912
1953
1920
1917
1958
1907
1947
1911
1923
1994
2007
2043
2096
2114
2123
2055
2025
1920
1872
1854
1799
1815
1792
1808
1840
1799
1840
1693
1793
2235
3005
3967
3359
2588
2089
1753
1654
1588
1615
1691
1715
1778
1759
1801
1854
1852
1894
1872
1888
1901
1844
1897
1854
1855
1863
1792
1827
1787
1802
1842
1808
1840
1788
1782
1803
1776
1819
1815
1841
1872
1843
1872
1819
1851
1878
1877
1952
1958
2031
2066
2000
1984
1872
1824
1791
1719
1738
1696
1711
1747
1705
1744
1692
1595
1697
2105
3099
4026
3287
2502
1933
1643
1488
1519
1573
1559
1634
1632
1669
1715
1712
1775
1770
1808
1835
1799
1819
1771
1774
1786
1756
1756
1725
1740
1749
1723
1754
1715
1717
1723
1697
1744
1728
1759
1790
1759
1807
1795
1807
1813
1770
1806
1776
1814
1879
1894
2006
1984
1956
1934
1842
1836
1744
1738
1717
1681
1714
1687
1712
1733
1677
1623
1583
1929
2767
4073
3648
2704
2079
1680
1490
1510
1510
1579
1628
1633
1706
1679
1739
1761
1751
1808
1805
1846
1847
1809
1843
1800
1804
1797
1772
1769
1737
1757
1747
1717
1745
1698
1722
1737
1719
1759
1745
1766
1789
1762
1807
1785
1788
1776
1744
1776
1752
1807
1870
1885
1985
2018
2004
1954
1861
1857
1779
1765
1741
1697
1739
1717
1743
1746
1730
1711
1573
1712
2369
3899
4095
3310
2432
1847
1518
1507
1488
1562
1603
1625
1710
1710
1743
1778
1776
1837
1817
1852
1867
1841
1885
1839
1851
1854
1810
1853
1799
1811
1826
1792
1813
1774
1775
1805
1792
1838
1808
1841
1851
1835
1908
1856
1872
1885
1857
1921
1884
1887
1947
1975
2044
2119
2159
2127
2034
2018
1942
1927
1872
1818
1872
1823
1845
1867
1838
1866
1728
1679
1983
2965
4095
4095
3458
2451
1811
1587
1533
1586
1639
1657
1744
1742
1778
1809
1814
1870
1847
1888
1911
1903
1930
1898
1899
1902
1858
1888
1833
1828
1842
1808
1840
1776
1796
1801
1792
1841
1806
1830
1823
1798
1835
1808
1823
1821
1797
1835
1803
1802
1883
1900
1988
2039
2031
1981
1890
1885
1808
1778
1744
1711
1745
1718
1747
1745
1728
1710
1531
1642
2206
3607
4095
3603
2608
1925
1533
1479
1462
1517
1568
1585
1661
1660
1723
1743
1743
1799
1805
1837
1844
1823
1866
1830
1840
1824
1789
1818
1762
1779
1770
1747
1760
1731
1756
1761
1755
1798
1765
1795
1791
1781
1823
1787
1815
1793
1771
1814
1803
1893
1923
1970
2060
2001
1968
1894
1833
1821
1751
1744
1729
1725
1758
1728
1755
1749
1633
1566
1761
2542
3993
4095
3168
2342
1811
1535
1487
1535
1535
1618
1653
1671
1738
1731
1786
1802
1791
1840
1829
1873
1871
1853
1878
1835
1862
1837
1821
1840
1790
1801
1780
1762
1795
1767
1808
1809
1808
1851
1808
1836
1826
1835
1873
1825
1859
1837
1826
1898
1907
1981
2066
2061
2057
1934
1913
1858
1811
1805
1743
1763
1749
1753
1792
1766
1739
1574
1642
2183
3339
4095
3564
2622
2039
1616
1535
1535
1563
1640
1645
1712
1742
1744
1801
1797
1847
1844
1841
1881
1850
1883
1861
1840
1857
1825
1840
1826
1810
1833
1780
1808
1787
1776
1808
1787
1834
1820
1826
1850
1825
1855
1844
1827
1862
1822
1874
1904
1927
2029
2064
2060
1986
1901
1890
1814
1813
1771
1749
1773
1739
1775
1767
1754
1670
1554
1831
2559
3959
4095
3116
2400
1835
1555
1530
1517
1583
1612
1637
1713
1706
1762
1770
1776
1828
1798
1856
1839
1829
1842
1806
1827
1808
1792
1815
1787
1808
1787
1757
1803
1776
1801
1787
1793
1818
1802
1856
1840
1839
1863
1826
1846
1838
1829
1909
1915
1995
2061
2032
2014
1906
1887
1827
1785
1777
1737
1762
1747
1755
1783
1741
1683
1535
1743
2467
3775
4095
3227
2435
1883
1535
1523
1519
1563
1631
1647
1717
1715
1739
1778
1769
1819
1810
1815
1834
1794
1840
1827
1813
1837
1786
1814
1799
1795
1819
1789
1811
1794
1790
1815
1798
1832
1821
1827
1851
1834
1858
1835
1834
1856
1861
1936
1967
2055
2066
2001
1972
1883
1830
1807
1751
1767
1739
1744
1769
1746
1783
1675
1535
1725
2299
3647
4095
3381
2557
1933
1616
1505
1513
1596
1589
1664
1678
1707
1746
1744
1795
1789
1799
1840
1817
1850
1826
1824
1836
1794
1826
1792
1783
1808
1791
1812
1781
1776
1801
1776
1821
1809
1831
1862
1825
1873
1849
1850
1871
1866
1951
1951
2057
2112
2035
2005
1919
1883
1861
1778
1763
1757
1766
1777
1762
1793
1740
1535
1619
2047
3242
4095
3807
2805
2110
1693
1495
1498
1562
1571
1648
1664
1692
1730
1727
1776
1766
1781
1814
1786
1811
1790
1777
1782
1748
1797
1770
1776
1794
1759
1791
1760
1767
1777
1744
1801
1773
1776
1807
1792
1824
1810
1813
1829
1838
1903
1924
2023
2046
1958
1936
1854
1818
1777
1718
1728
1701
1715
1734
1703
1731
1612
1486
1690
2336
3696
4035
3197
2419
1831
1561
1459
1481
1531
1535
1642
1642
1679
1715
1729
1777
1762
1767
1792
1762
1794
1763
1767
1776
1738
1783
1757
1776
1786
1767
1792
1762
1760
1775
1759
1794
1791
1798
1811
1794
1844
1814
1840
1877
1886
1983
2031
2033
2009
1909
1898
1823
1792
1759
1715
1755
1743
1770
1778
1746
1653
1503
1777
2549
3883
4095
3104
2391
1862
1573
1535
1520
1564
1616
1619
1703
1698
1729
1754
1749
1808
1793
1810
1806
1799
1835
1791
1794
1807
1781
1808
1777
1791
1813
1792
1822
1783
1808
1825
1799
1840
1818
1845
1855
1819
1867
1866
1927
1968
2013
2096
2063
2006
1941
1866
1877
1813
1791
1782
1773
1807
1773
1797
1767
1553
1685
2139
3120
3783
3152
2525
2067
1773
1647
1619
1676
1671
1722
1745
1760
1826
1802
1841
1841
1826
1872
1850
1866
1866
1814
1850
1813
1831
1835
1825
1875
1850
1850
1847
1824
1858
1813
1840
1859
1855
1890
1856
1871
1887
1872
1942
1936
1989
2090
2070
2112
2000
1968
1904
1825
1838
1792
1790
1790
1771
1820
1785
1740
1590
1759
2352
3335
3728
2981
2309
1951
1673
1632
1627
1638
1695
1693
1728
1763
1766
1821
1818
1846
1842
1837
1865
1797
1818
1814
1780
1804
1776
1802
1813
1808
1835
1796
1833
1828
1808
1839
1791
1818
1831
1831
1883
1831
1843
1855
1837
1917
1910
2000
2032
2002
2017
1905
1873
1811
1764
1766
1696
1730
1743
1712
1757
1702
1600
1563
1886
2723
3772
3440
2627
2061
1762
1535
1535
1535
1566
1639
1639
1707
1717
1717
1785
1764
1825
1808
1798
1840
1790
1796
1772
1759
1792
1745
1789
1791
1774
1798
1761
1793
1780
1769
1810
1779
1809
1823
1818
1850
1814
1835
1826
1813
1874
1887
1936
2014
2031
2037
1935
1894
1831
1782
1787
1728
1745
1735
1724
1765
1742
1713
1577
1722
2297
3407
3919
2991
2270
1882
1593
1569
1573
1595
1658
1663
1705
1712
1714
1762
1749
1805
1821
1805
1841
1796
1823
1806
1785
1822
1776
1805
1799
1781
1806
1775
1795
1792
1785
1822
1789
1834
1821
1817
1845
1808
1847
1840
1830
1857
1811
1840
1872
1901
1994
2032
2075
1985
1912
1885
1811
1802
1757
1742
1769
1733
1771
1761
1751
1693
1583
1840
2591
4017
3887
2811
2181
1761
1587
1616
1599
1662
1673
1681
1731
1719
1776
1776
1789
1834
1819
1854
1850
1837
1867
1824
1843
1823
1813
1846
1803
1815
1783
1774
1807
1771
1810
1808
1809
1841
1810
1861
1841
1842
1875
1836
1860
1852
1837
1869
1889
1955
1995
2079
2090
1981
1943
1893
1840
1839
1775
1797
1776
1767
1795
1770
1802
1713
1593
1794
2481
4095
4095
3398
2467
1827
1616
1565
1559
1634
1629
1714
1719
1745
1795
1791
1849
1839
1840
1885
1854
1890
1859
1839
1856
1814
1841
1808
1795
1817
1775
1799
1772
1776
1802
1763
1814
1801
1798
1827
1801
1824
1805
1793
1819
1783
1808
1789
1781
1817
1833
1910
1941
2031
2023
1935
1904
1831
1779
1763
1698
1712
1698
1700
1734
1702
1726
1619
1511
1713
2422
4034
4095
3225
2357
1711
1478
1424
1439
1498
1491
1565
1569
1594
1653
1645
1697
1709
1735
1779
1750
1777
1755
1735
1759
1715
1737
1714
1697
1715
1663
1698
1675
1675
1702
1670
1711
1693
1698
1737
1702
1743
1722
1722
1740
1703
1753
1729
1719
1758
1785
1841
1909
1968
1954
1871
1839
1750
1715
1713
1655
1683
1659
1664
1692
1660
1659
1498
1473
1864
2849
4095
3813
2779
2074
1535
1409
1389
1421
1495
1502
1589
1601
1621
1680
1663
1738
1726
1739
1765
1740
1771
1738
1744
1755
1711
1745
1712
1709
1727
1683
1707
1681
1694
1706
1684
1730
1712
1719
1744
1725
1760
1744
1744
1764
1725
1758
1733
1734
1767
1801
1857
1906
1997
1996
1918
1866
1787
1758
1744
1689
1708
1689
1699
1725
1703
1727
1565
1520
1859
2761
4095
3914
2919
2206
1655
1498
1456
1475
1535
1554
1628
1648
1675
1714
1703
1766
1776
1800
1824
1798
1837
1805
1799
1815
1782
1813
1792
1795
1800
1769
1803
1767
1776
1793
1759
1799
1791
1798
1835
1808
1839
1824
1825
1845
1806
1839
1823
1834
1886
1891
1985
2064
2062
2017
1920
1894
1824
1794
1773
1725
1762
1751
1765
1782
1744
1664
1525
1778
2548
3837
4016
3055
2301
1754
1455
1457
1449
1488
1533
1535
1616
1621
1626
1663
1651
1691
1680
1684
1680
1638
1671
1628
1616
1615
1570
1583
1535
1526
1510
1461
1477
1441
1422
1441
1405
1430
1395
1406
1429
1386
1398
1353
1328
1328
1282
1301
1279
1327
1360
1413
1472
1413
1323
1211
1105
1072
990
946
928
899
901
849
809
720
496
542
928
1968
2540
2158
1482
898
511
353
254
272
238
240
262
256
290
272
288
304
276
305
272
272
272
229
240
189
177
179
144
174
114
114
95
61
101
64
67
80
54
98
69
85
97
71
94
53
46
51
58
128
132
233
263
204
165
41
0
0
0
0
0
0
0
0
0
0
0
48
784
1925
2025
1518
937
491
299
231
292
367
415
509
534
609
675
698
784
807
879
937
938
1014
1009
1072
1107
1105
1169
1171
1205
1239
1232
1246
1191
1209
1239
1235
1311
1291
1329
1349
1333
1392
1382
1398
1419
1414
1474
1503
1602
1680
1793
1888
1866
1840
1811
1771
1794
1741
1771
1794
1776
1836
1823
1849
1791
1617
1789
2340
3675
4095
3309
2525
1903
1603
1535
1535
1634
1652
1690
1703
1653
1680
1639
1698
1760
1797
1889
1879
1939
1968
1977
2027
2005
2043
2075
2065
2133
2109
2133
2139
2109
2166
2138
2170
2191
2165
2217
2176
2199
2187
2159
2192
2161
2182
2217
2231
2331
2403
2434
2415
2331
2323
2253
2246
2223
2190
2246
2223
2247
2261
2251
2218
2067
2307
3062
4095
4095
4095
3920
2992
2501
2369
2272
2282
2303
2304
2370
2352
2406
2442
2438
2521
2494
2523
2526
2503
2533
2475
2490
2474
2416
2448
2385
2395
2352
2300
2306
2239
2248
2238
2210
2271
2239
2283
2311
2314
2369
2331
2368
2369
2359
2430
2417
2533
2559
2501
2459
2326
2288
2215
2131
2129
2065
2075
2064
2054
2096
2000
1865
1936
2416
3902
4095
4095
3230
2486
2085
1853
1846
1854
1857
1947
1921
1984
2003
1999
2068
2057
2096
2099
2080
2123
2065
2096
2083
2064
2108
2069
2095
2093
2071
2101
2035
2069
2059
2035
2082
2032
2074
2059
2032
2080
2023
2062
2041
2020
2087
2096
2160
2234
2261
2276
2157
2110
2064
1984
1982
1918
1936
1919
1891
1935
1890
1874
1719
1727
2209
3279
4095
4064
3006
2375
1861
1696
1657
1661
1730
1719
1776
1792
1792
1861
1837
1883
1883
1863
1903
1857
1886
1860
1839
1861
1810
1829
1819
1798
1837
1784
1805
1776
1760
1801
1763
1794
1785
1763
1812
1772
1802
1776
1750
1779
1739
1813
1830
1876
1982
1908
1862
1773
1695
1687
1586
1580
1535
1527
1591
1535
1583
1520
1350
1375
1709
2738
3824
3506
2683
1968
1517
1313
1262
1318
1337
1422
1437
1459
1530
1518
1577
1597
1591
1656
1600
1643
1632
1607
1642
1600
1648
1629
1616
1651
1612
1643
1623
1607
1652
1607
1653
1657
1649
1697
1673
1715
1702
1703
1737
1691
1725
1743
1779
1883
1933
1957
1904
1811
1800
1713
1712
1654
1637
1670
1637
1681
1669
1666
1616
1456
1712
2415
3723
4080
3137
2394
1798
1493
1467
1438
1530
1561
1593
1663
1656
1728
1737
1743
1796
1770
1809
1795
1766
1808
1760
1808
1773
1759
1807
1761
1803
1779
1764
1809
1762
1807
1785
1778
1827
1790
1840
1834
1833
1867
1818
1857
1837
1843
1935
1926
2061
2093
2054
2023
1907
1902
1831
1781
1786
1727
1771
1753
1770
1801
1718
1598
1582
1962
3006
4095
3905
2866
2176
1722
1472
1495
1507
1531
1607
1596
1661
1666
1683
1738
1717
1780
1759
1753
1785
1727
1757
1711
1680
1695
1626
1651
1623
1618
1637
1577
1615
1583
1584
1620
1595
1649
1635
1641
1664
1615
1661
1615
1600
1663
1670
1743
1815
1836
1838
1725
1691
1605
1555
1535
1462
1498
1465
1475
1524
1495
1511
1322
1424
1971
3068
3954
3331
2541
2011
1616
1584
1593
1662
1770
1792
1914
1943
2000
2095
2112
2201
2242
2306
2389
2395
2477
2467
2489
2528
2504
2545
2512
2502
2519
2464
2480
2441
2419
2452
2460
2559
2543
2534
2550
2512
2559
2544
2559
2583
2559
2657
2672
2779
2862
2817
2790
2667
2608
2587
2481
2473
2395
2377
2367
2315
2349
2259
2085
2160
2553
3728
4095
4095
3434
2786
2454
2241
2209
2266
2317
2443
2482
2559
2695
2751
2879
2927
2998
3043
2992
3007
2930
2866
2813
2723
2724
2645
2636
2623
2559
2559
2494
2480
2467
2403
2432
2389
2383
2391
2368
2409
2379
2374
2383
2368
2423
2446
2475
2559
2617
2683
2630
2595
2559
2500
2491
2422
2421
2415
2377
2418
2389
2354
2192
2197
2667
3792
4095
4095
3419
2789
2322
2109
2034
1989
2033
2017
2046
2057
2032
2080
2032
2038
2059
2033
2079
2038
2037
2026
2000
2033
1999
2014
2015
1974
2003
1951
1921
1904
1857
1901
1858
1856
1840
1794
1820
1790
1797
1783
1740
1747
1743
1798
1858
1920
1980
1931
1887
1811
1757
1759
1683
1677
1654
1607
1600
1535
1559
1474
1309
1478
2007
3101
3581
2865
2203
1669
1360
1239
1201
1250
1273
1342
1387
1405
1474
1472
1530
1573
1575
1621
1607
1645
1647
1623
1655
1616
1638
1628
1625
1663
1649
1671
1650
1631
1659
1629
1647
1669
1678
1722
1712
1743
1739
1711
1743
1727
1797
1837
1906
2000
1939
1904
1831
1775
1757
1685
1681
1667
1648
1696
1680
1703
1696
1570
1534
1809
2774
4095
4095
3119
2268
1743
1531
1499
1567
1582
1661
1709
1731
1804
1801
1856
1882
1899
1936
1914
1937
1947
1934
1951
1909
1930
1936
1921
1960
1920
1951
1924
1902
1929
1904
1919
1915
1904
1930
1904
1927
1910
1892
1920
1874
1919
1955
1968
2082
2077
2034
1952
1862
1840
1764
1731
1699
1664
1692
1664
1680
1672
1632
1533
1456
1815
2805
4095
4013
2845
2088
1535
1344
1359
1345
1395
1424
1449
1501
1496
1535
1559
1568
1605
1585
1631
1616
1606
1634
1595
1602
1587
1569
1587
1558
1590
1584
1556
1575
1533
1568
1565
1558
1611
1599
1612
1630
1625
1648
1629
1647
1667
1728
1795
1854
1918
1871
1796
1761
1690
1676
1622
1600
1602
1568
1601
1588
1590
1603
1443
1414
1730
2659
4075
3875
2874
2126
1590
1428
1380
1444
1472
1506
1577
1577
1631
1642
1670
1723
1712
1758
1755
1765
1793
1759
1785
1757
1746
1769
1733
1767
1758
1759
1788
1750
1790
1774
1776
1805
1770
1803
1805
1808
1843
1816
1841
1811
1813
1890
1893
2009
2064
2022
1988
1895
1895
1822
1791
1799
1761
1790
1770
1780
1831
1802
1711
1636
1936
2814
4095
4048
3046
2373
1900
1650
1646
1645
1680
1726
1751
1817
1826
1849
1904
1888
1946
1937
1942
1968
1956
1970
1925
1930
1955
1911
1937
1911
1915
1939
1906
1943
1914
1912
1929
1919
1959
1941
1963
1991
1975
2013
2007
2019
2062
2071
2145
2222
2237
2227
2128
2096
2023
1987
1968
1929
1941
1927
1953
1979
1943
1926
1757
1886
2414
3418
4095
3413
2711
2291
1935
1830
1808
1827
1849
1850
1894
1907
1919
1936
1926
1984
1984
1990
1986
1970
1984
1949
1938
1952
1931
1942
1921
1921
1946
1907
1923
1905
1890
1936
1921
1946
1907
1941
1987
1968
1984
1968
1965
1988
2005
2064
2097
2145
2154
2075
2016
1934
1891
1867
1818
1824
1799
1813
1831
1801
1808
1654
1662
2063
2842
3906
3462
2695
2204
1822
1674
1631
1656
1682
1671
1711
1709
1739
1787
1795
1824
1797
1805
1815
1787
1808
1776
1761
1762
1733
1767
1741
1743
1763
1738
1757
1735
1739
1761
1745
1773
1776
1776
1792
1779
1814
1803
1812
1829
1874
1920
1978
2034
2032
1971
1917
1845
1803
1774
1725
1735
1722
1730
1759
1740
1753
1615
1567
1881
2718
4095
3919
2941
2277
1777
1564
1530
1535
1607
1637
1694
1710
1747
1785
1793
1840
1846
1867
1876
1853
1869
1838
1839
1841
1801
1807
1789
1795
1807
1806
1832
1791
1783
1791
1777
1808
1803
1809
1824
1808
1830
1807
1811
1807
1829
1890
1911
1996
2016
1933
1891
1821
1788
1741
1680
1677
1645
1646
1665
1639
1652
1588
1441
1494
1939
3088
4031
3433
2519
1867
1503
1371
1391
1439
1465
1515
1522
1565
1603
1603
1648
1648
1681
1695
1692
1705
1705
1706
1709
1680
1683
1671
1677
1670
1648
1670
1647
1655
1659
1633
1648
1648
1666
1686
1700
1731
1738
1755
1756
1755
1827
1845
1919
2016
2000
1970
1890
1865
1830
1777
1791
1750
1774
1787
1783
1814
1797
1735
1625
1808
2471
3818
4095
3488
2586
2019
1685
1619
1664
1694
1751
1771
1805
1840
1853
1884
1894
1914
1936
1934
1952
1922
1937
1950
1933
1932
1891
1886
1884
1875
1903
1887
1903
1911
1901
1927
1935
1962
1969
1966
1999
1989
2013
1994
1984
2032
2047
2103
2192
2219
2207
2139
2081
2038
1987
1968
1919
1906
1906
1915
1930
1904
1905
1774
1760
2129
2917
3918
3567
2825
2303
1881
1682
1662
1654
1686
1695
1727
1745
1762
1798
1799
1824
1834
1834
1865
1850
1855
1862
1855
1861
1808
1808
1802
1782
1775
1751
1749
1758
1757
1795
1803
1808
1835
1818
1819
1802
1824
1849
1833
1870
1887
1936
2005
2047
2062
1998
1926
1876
1813
1782
1744
1750
1742
1718
1733
1731
1728
1588
1565
1941
2704
3535
3179
2517
2037
1696
1535
1523
1535
1591
1611
1635
1654
1667
1712
1726
1762
1779
1781
1814
1808
1810
1777
1761
1765
1739
1755
1767
1771
1788
1747
1775
1766
1755
1789
1787
1798
1795
1807
1830
1809
1827
1833
1831
1874
1897
1935
2000
2018
2023
1957
1903
1847
1807
1779
1729
1728
1729
1742
1766
1745
1743
1616
1634
2021
2872
3904
3386
2622
2111
1730
1597
1587
1613
1666
1693
1730
1758
1787
1833
1840
1874
1890
1902
1929
1905
1907
1879
1861
1876
1843
1863
1856
1852
1865
1844
1861
1861
1862
1894
1882
1909
1903
1903
1937
1925
1951
1947
1934
1971
2018
2086
2151
2173
2128
2032
1990
1938
1872
1843
1810
1801
1790
1781
1776
1744
1734
1607
1535
1874
2882
4095
4095
2989
2160
1600
1420
1393
1424
1471
1483
1534
1559
1569
1617
1619
1667
1669
1676
1687
1684
1705
1680
1677
1677
1649
1662
1649
1643
1648
1616
1632
1622
1613
1633
1616
1639
1648
1657
1662
1648
1665
1667
1673
1671
1696
1751
1776
1883
1893
1845
1795
1750
1719
1701
1649
1644
1629
1626
1647
1632
1659
1616
1499
1530
1863
2899
4006
3657
2714
1995
1562
1411
1424
1462
1495
1535
1571
1603
1651
1664
1717
1741
1746
1784
1793
1815
1808
1808
1823
1794
1794
1791
1791
1797
1767
1765
1774
1777
1797
1786
1808
1792
1799
1834
1823
1856
1863
1860
1885
1871
1889
1913
1941
2014
2081
2078
2011
1955
1921
1865
1838
1792
1775
1792
1786
1808
1796
1793
1737
1595
1733
2256
3472
4095
3499
2628
1998
1631
1567
1566
1632
1651
1705
1744
1756
1769
1814
1840
1869
1874
1899
1875
1896
1904
1889
1898
1882
1874
1870
1853
1859
1840
1842
1837
1809
1843
1840
1853
1872
1856
1872
1856
1872
1879
1872
1901
1874
1889
1943
1972
2064
2111
2103
2030
1931
1919
1861
1841
1807
1801
1840
1845
1842
1840
1805
1712
1663
1955
2768
3904
3893
3071
2416
1934
1644
1594
1615
1670
1716
1756
1786
1814
1840
1877
1879
1917
1915
1930
1936
1923
1927
1902
1902
1888
1887
1895
1884
1882
1893
1879
1886
1871
1876
1884
1879
1902
1893
1903
1923
1914
1920
1904
1904
1925
1950
1998
2090
2147
2128
2046
1978
1905
1871
1837
1795
1805
1790
1799
1808
1808
1795
1636
1613
1950
2871
4095
3895
2913
2219
1723
1533
1488
1523
1573
1613
1659
1681
1734
1752
1769
1807
1808
1820
1823
1807
1819
1815
1805
1805
1787
1790
1769
1789
1791
1779
1787
1766
1770
1779
1777
1803
1792
1811
1822
1819
1850
1835
1840
1819
1836
1918
1935
2038
2078
2014
1953
1866
1850
1813
1761
1750
1727
1751
1755
1748
1786
1738
1610
1578
1894
2863
4095
4095
3039
2233
1686
1479
1456
1490
1534
1607
1630
1671
1702
1717
1755
1754
1785
1798
1804
1808
1791
1805
1790
1766
1785
1763
1759
1753
1755
1767
1741
1741
1743
1744
1758
1747
1775
1774
1776
1805
1791
1811
1808
1803
1823
1855
1904
1985
2027
2023
1938
1895
1853
1790
1773
1744
1741
1742
1743
1785
1771
1767
1638
1568
1846
2673
4039
4095
3117
2352
1767
1517
1490
1533
1609
1637
1684
1715
1732
1775
1773
1805
1834
1840
1874
1850
1869
1855
1838
1844
1831
1822
1811
1805
1811
1807
1813
1808
1802
1818
1818
1836
1845
1831
1861
1838
1858
1856
1841
1868
1874
1941
1979
2061
2109
2054
2002
1939
1884
1856
1807
1793
1782
1786
1807
1790
1791
1786
1646
1637
1929
2825
4051
3974
3045
2319
1808
1600
1535
1594
1616
1679
1713
1739
1789
1779
1815
1827
1831
1883
1878
1903
1898
1887
1902
1883
1899
1901
1904
1909
1861
1872
1872
1873
1887
1871
1885
1882
1882
1907
1893
1911
1909
1910
1939
1905
1953
1983
2041
2151
2129
2082
1999
1947
1919
1875
1859
1844
1835
1862
1856
1877
1860
1783
1686
1850
2388
3439
3754
3151
2503
2087
1779
1699
1712
1731
1792
1819
1838
1875
1888
1931
1937
1952
1971
1945
1950
1941
1935
1946
1927
1943
1942
1939
1955
1934
1951
1947
1930
1949
1915
1927
1926
1920
1938
1935
1940
1937
1936
1939
1916
1955
1973
1984
2082
2096
2087
2011
1939
1888
1821
1794
1767
1763
1791
1776
1783
1782
1728
1604
1675
2153
3150
3891
3301
2538
2032
1663
1533
1535
1574
1627
1648
1658
1697
1706
1744
1746
1776
1802
1806
1810
1795
1794
1790
1772
1776
1775
1770
1787
1781
1793
1788
1791
1799
1793
1807
1794
1802
1840
1837
1859
1850
1845
1873
1863
1895
1923
1949
2071
2093
2074
1991
1934
1898
1831
1806
1781
1776
1785
1776
1795
1799
1767
1648
1622
2000
3040
4095
4095
3015
2267
1744
1563
1566
1591
1645
1680
1712
1760
1777
1807
1818
1847
1881
1875
1894
1879
1869
1897
1868
1883
1863
1858
1874
1866
1883
1857
1840
1856
1835
1869
1867
1874
1914
1885
1904
1904
1903
1917
1890
1907
1965
1988
2086
2138
2107
2025
1977
1949
1875
1840
1802
1798
1795
1787
1814
1799
1803
1706
1584
1822
2610
4095
4095
3326
2449
1827
1535
1503
1509
1574
1601
1646
1680
1687
1732
1745
1769
1790
1792
1827
1813
1808
1814
1797
1791
1778
1783
1792
1790
1802
1776
1770
1771
1758
1776
1757
1776
1796
1776
1808
1803
1817
1839
1818
1834
1834
1904
1961
2053
2065
1995
1934
1895
1845
1811
1771
1753
1757
1745
1774
1767
1780
1730
1569
1670
2182
3442
4095
3755
2736
2046
1638
1519
1518
1568
1597
1635
1680
1686
1731
1744
1770
1799
1803
1825
1815
1808
1813
1791
1794
1783
1783
1792
1776
1795
1774
1782
1790
1776
1799
1786
1788
1698
1602
1606
1600
1621
1649
1655
1689
1680
1727
1780
1817
1942
1935
1903
1840
1775
1744
1680
1675
1659
1651
1679
1679
1697
1705
1634
1493
1609
2150
3328
3993
3376
2527
1945
1578
1472
1506
1535
1594
1648
1667
1719
1727
1747
1761
1779
1819
1829
1853
1858
1840
1850
1838
1837
1819
1813
1831
1817
1825
1820
1798
1817
1810
1839
1846
1850
1885
1869
1889
1905
1878
1894
1877
1904
1952
1968
2062
2106
2117
2066
1989
1952
1901
1857
1831
1819
1835
1805
1835
1840
1825
1760
1636
1879
2508
3583
3739
3007
2418
1997
1717
1678
1671
1719
1761
1780
1824
1840
1874
1904
1907
1929
1923
1925
1921
1906
1922
1892
1890
1885
1879
1903
1882
1913
1918
1890
1902
1886
1891
1902
1896
1914
1915
1936
1936
1933
1936
1923
1922
1956
1984
2033
2105
2122
2091
2000
1942
1883
1863
1824
1792
1798
1785
1797
1803
1797
1766
1591
1680
2128
3217
4095
3514
2659
2064
1659
1535
1522
1572
1602
1622
1672
1683
1719
1743
1739
1799
1794
1798
1795
1779
1791
1776
1771
1767
1765
1773
1773
1795
1808
1795
1805
1791
1806
1810
1811
1840
1840
1859
1896
1867
1891
1874
1869
1871
1904
1961
1971
2098
2096
2028
1967
1904
1878
1842
1796
1790
1771
1787
1777
1788
1798
1743
1620
1681
2196
3557
4095
3803
2705
2031
1646
1510
1525
1562
1597
1657
1671
1707
1722
1744
1777
1787
1803
1795
1825
1836
1826
1833
1813
1807
1801
1794
1811
1808
1808
1809
1804
1798
1808
1810
1840
1806
1839
1846
1845
1865
1844
1856
1842
1845
1887
1918
1967
2063
2070
2032
1951
1920
1879
1808
1776
1735
1751
1747
1741
1739
1752
1739
1589
1597
2025
3066
4095
3856
2816
2151
1664
1513
1506
1529
1601
1626
1680
1706
1722
1765
1778
1819
1826
1827
1846
1828
1829
1824
1808
1815
1809
1821
1820
1820
1830
1809
1827
1821
1805
1835
1807
1844
1851
1847
1859
1858
1872
1877
1863
1868
1878
1926
1951
2065
2106
2053
1999
1925
1872
1846
1808
1799
1774
1776
1790
1776
1810
1786
1661
1647
1953
2911
4095
3930
2926
2230
1750
1572
1535
1594
1615
1662
1680
1725
1746
1741
1787
1840
1854
1876
1855
1858
1856
1843
1845
1827
1840
1835
1840
1856
1849
1857
1842
1850
1854
1855
1875
1862
1879
1904
1893
1927
1919
1920
1919
1904
1961
2006
2035
2125
2118
2099
2019
1965
1919
1870
1842
1820
1809
1823
1817
1841
1830
1777
1641
1731
2253
3413
4095
3520
2630
2062
1706
1616
1630
1658
1696
1723
1749
1792
1793
1837
1845
1859
1872
1878
1902
1882
1877
1869
1843
1856
1826
1833
1838
1824
1829
1819
1824
1812
1804
1826
1840
1828
1839
1826
1866
1852
1863
1861
1847
1859
1911
1940
2007
2070
2062
1985
1918
1876
1827
1813
1760
1755
1744
1731
1744
1751
1749
1643
1535
1833
2591
3717
3723
2896
2243
1747
1533
1520
1529
1571
1601
1627
1649
1665
1686
1705
1727
1739
1735
1738
1734
1741
1740
1714
1729
1726
1738
1739
1725
1741
1736
1761
1777
1758
1753
1750
1771
1787
1797
1806
1806
1818
1840
1817
1840
1899
1906
1983
2037
2023
1971
1916
1867
1838
1814
1781
1764
1776
1785
1778
1776
1764
1661
1572
1819
2583
3787
3856
3007
2313
1823
1606
1569
1586
1627
1655
1692
1727
1744
1770
1759
1794
1836
1830
1862
1833
1855
1837
1821
1856
1827
1842
1840
1840
1863
1840
1853
1851
1838
1846
1821
1866
1872
1861
1891
1871
1906
1878
1870
1904
1918
1959
2022
2074
2093
2015
1955
1904
1867
1854
1797
1796
1794
1789
1825
1799
1810
1697
1603
1913
2587
3563
3472
2807
2313
1893
1685
1650
1659
1728
1726
1771
1791
1801
1842
1841
1878
1882
1876
1897
1859
1890
1886
1867
1887
1857
1873
1870
1847
1867
1805
1797
1777
1759
1780
1776
1807
1791
1790
1821
1797
1827
1820
1807
1871
1872
1930
2001
2020
2026
1946
1893
1847
1807
1808
1749
1779
1777
1772
1794
1757
1707
1555
1744
2319
3216
3467
2884
2320
1971
1686
1627
1634
1650
1710
1703
1754
1760
1771
1805
1808
1840
1846
1835
1856
1831
1856
1827
1808
1837
1807
1834
1830
1825
1847
1811
1834
1833
1833
1861
1841
1858
1869
1860
1892
1853
1876
1871
1891
1942
1962
2077
2084
2037
2000
1914
1901
1847
1799
1823
1789
1810
1805
1812
1840
1767
1648
1770
2228
3266
3775
3175
2503
2028
1744
1620
1670
1689
1698
1748
1747
1797
1808
1818
1863
1841
1877
1875
1871
1899
1863
1889
1854
1840
1861
1811
1851
1846
1831
1862
1834
1863
1843
1837
1885
1851
1875
1867
1872
1907
1868
1900
1921
1949
2013
2074
2095
2030
1959
1933
1869
1857
1808
1781
1805
1776
1805
1789
1803
1787
1616
1712
2128
3184
4083
3403
2590
2030
1693
1625
1599
1658
1664
1687
1743
1744
1793
1787
1809
1856
1829
1872
1855
1857
1841
1831
1842
1815
1811
1836
1799
1833
1811
1805
1817
1793
1835
1813
1831
1856
1843
1866
1847
1854
1886
1847
1871
1895
1925
2002
2061
2074
2002
1931
1903
1841
1837
1793
1783
1792
1760
1806
1807
1806
1761
1603
1734
2210
3344
4021
3309
2523
1963
1665
1617
1610
1661
1664
1702
1737
1728
1794
1788
1799
1847
1841
1884
1872
1872
1872
1845
1870
1838
1829
1840
1791
1823
1802
1793
1812
1794
1825
1796
1811
1842
1808
1854
1839
1839
1857
1829
1869
1849
1891
1934
1996
2077
2015
1975
1924
1871
1856
1788
1771
1774
1744
1776
1761
1775
1793
1669
1584
1742
2363
3581
3845
3109
2365
1841
1614
1535
1584
1622
1648
1692
1703
1734
1743
1773
1803
1809
1839
1840
1841
1866
1840
1843
1824
1811
1811
1787
1794
1778
1775
1785
1771
1777
1774
1776
1802
1808
1811
1819
1822
1834
1812
1835
1838
1835
1855
1897
1938
2007
2066
2032
1963
1917
1861
1826
1797
1753
1763
1744
1749
1773
1765
1757
1680
1602
1861
2531
3657
3603
2875
2271
1825
1637
1601
1619
1680
1707
1751
1745
1778
1809
1853
1892
1893
1904
1924
1914
1938
1916
1927
1919
1888
1890
1866
1872
1873
1846
1863
1846
1859
1872
1863
1887
1883
1877
1904
1891
1898
1900
1893
1920
1895
1945
1982
2021
2112
2124
2112
2019
1962
1933
1878
1873
1837
1826
1844
1837
1856
1847
1825
1706
1719
2096
2923
3775
3319
2627
2160
1808
1664
1671
1685
1731
1742
1761
1791
1808
1843
1842
1857
1873
1875
1905
1885
1872
1860
1833
1834
1808
1805
1808
1798
1807
1785
1791
1792
1776
1798
1780
1803
1814
1805
1840
1809
1822
1831
1826
1849
1813
1840
1894
1904
2019
2030
2010
1949
1875
1841
1782
1756
1742
1728
1750
1744
1756
1765
1735
1648
1584
1863
2624
3795
3632
2798
2187
1776
1579
1570
1587
1633
1665
1683
1719
1728
1750
1787
1797
1834
1822
1835
1843
1833
1834
1809
1803
1805
1783
1791
1783
1794
1798
1767
1774
1762
1767
1791
1791
1803
1803
1808
1811
1807
1829
1823
1827
1827
1822
1858
1907
1938
2029
2077
2043
1957
1898
1857
1807
1782
1744
1749
1772
1749
1771
1773
1770
1702
1591
1773
2461
3901
4095
3137
2358
1827
1586
1535
1571
1628
1657
1683
1719
1735
1776
1802
1819
1819
1837
1855
1850
1847
1840
1827
1824
1803
1808
1810
1792
1806
1790
1783
1788
1776
1805
1797
1808
1811
1813
1836
1827
1838
1840
1819
1840
1823
1831
1827
1824
1882
1918
1969
2070
2060
2017
1938
1893
1856
1809
1790
1751
1757
1761
1754
1777
1763
1733
1586
1627
2055
3167
4095
3668
2677
2032
1643
1535
1554
1577
1637
1675
1708
1742
1749
1785
1790
1808
1827
1839
1858
1858
1869
1870
1842
1839
1808
1823
1833
1823
1823
1813
1808
1815
1799
1822
1818
1831
1831
1831
1852
1842
1866
1862
1853
1859
1840
1853
1853
1889
1939
1972
2080
2073
2023
1957
1898
1856
1813
1775
1779
1764
1778
1786
1783
1801
1761
1625
1658
2061
3166
4095
3685
2725
2074
1694
1577
1598
1620
1648
1691
1704
1739
1767
1785
1818
1816
1856
1871
1872
1887
1872
1869
1856
1835
1826
1821
1840
1835
1814
1825
1813
1810
1815
1806
1826
1815
1819
1824
1826
1840
1840
1849
1843
1840
1851
1823
1852
1917
1933
2032
2076
2059
1991
1920
1890
1823
1795
1773
1748
1774
1758
1765
1781
1750
1675
1579
1804
2512
3819
3933
3024
2337
1848
1622
1600
1616
1655
1690
1710
1757
1776
1802
1826
1829
1867
1867
1879
1879
1873
1881
1856
1852
1845
1827
1840
1831
1838
1847
1838
1840
1815
1827
1844
1846
1867
1853
1873
1877
1872
1887
1878
1879
1860
1852
1882
1926
1974
2055
2099
2092
1999
1942
1888
1839
1810
1785
1785
1789
1791
1797
1792
1778
1668
1582
1841
2613
3899
3890
2975
2293
1798
1599
1568
1589
1634
1663
1698
1713
1744
1775
1795
1821
1841
1840
1857
1843
1854
1840
1820
1815
1808
1824
1829
1823
1830
1823
1826
1822
1818
1835
1815
1825
1833
1846
1857
1852
1860
1861
1857
1858
1849
1848
1858
1904
1945
2007
2096
2066
2006
1949
1885
1847
1806
1775
1763
1755
1769
1776
1776
1789
1690
1577
1744
2375
3665
3999
3200
2428
1879
1602
1535
1565
1594
1623
1677
1683
1727
1745
1772
1803
1817
1839
1831
1831
1829
1808
1813
1808
1799
1807
1798
1813
1809
1811
1826
1796
1799
1808
1810
1823
1819
1837
1842
1842
1855
1855
1847
1853
1834
1843
1861
1919
1938
2021
2085
2058
1993
1904
1854
1809
1775
1759
1744
1744
1758
1749
1766
1744
1598
1582
1896
2789
3951
3725
2838
2193
1737
1557
1534
1570
1594
1621
1655
1679
1712
1722
1765
1779
1790
1801
1791
1804
1801
1800
1801
1785
1793
1778
1791
1813
1814
1809
1802
1776
1785
1783
1805
1799
1792
1825
1813
1849
1836
1834
1841
1823
1830
1856
1894
1920
2005
2041
2035
1975
1929
1854
1813
1781
1776
1781
1763
1778
1777
1796
1783
1634
1695
2101
2928
3547
3040
2496
2096
1790
1671
1653
1689
1712
1744
1793
1809
1853
1854
1877
1902
1898
1904
1903
1888
1882
1857
1863
1857
1859
1857
1839
1861
1845
1827
1835
1826
1841
1825
1840
1861
1840
1852
1850
1872
1867
1851
1872
1839
1849
1873
1895
1994
2032
2018
1971
1909
1857
1779
1743
1744
1743
1744
1738
1744
1767
1741
1616
1648
2036
2810
3403
3006
2409
1991
1745
1616
1635
1620
1630
1702
1712
1726
1730
1763
1793
1777
1809
1819
1792
1786
1798
1825
1776
1774
1769
1761
1776
1759
1790
1808
1792
1796
1790
1791
1773
1744
1812
1840
1837
1818
1834
1850
1807
1792
1829
1901
1968
1984
1998
2029
1943
1866
1792
1783
1779
1750
1710
1706
1760
1753
1727
1708
1620
1844
2350
3215
3504
2791
2192
1847
1635
1602
1642
1680
1675
1685
1712
1700
1739
1794
1782
1807
1813
1833
1823
1789
1778
1789
1755
1767
1770
1788
1823
1839
1807
1809
1814
1821
1840
1839
1812
1841
1834
1879
1901
1879
1890
1909
1875
1874
1951
2010
2058
2069
2096
2059
1961
1891
1842
1819
1794
1787
1777
1777
1749
1747
1774
1712
1724
2109
2775
3742
3245
2506
2014
1769
1648
1632
1653
1674
1680
1708
1727
1744
1785
1827
1825
1816
1831
1826
1823
1823
1791
1776
1792
1781
1797
1815
1834
1806
1810
1826
1821
1834
1808
1808
1840
1840
1853
1866
1857
1866
1856
1867
1862
1853
1855
1904
1954
1978
2018
2036
2001
1941
1888
1840
1795
1751
1738
1744
1735
1749
1744
1755
1677
1597
1775
2359
3531
3583
2763
2174
1797
1609
1559
1575
1591
1600
1635
1653
1675
1697
1710
1719
1729
1745
1743
1735
1744
1732
1714
1709
1701
1717
1713
1719
1735
1728
1737
1734
1741
1740
1734
1752
1751
1757
1776
1773
1776
1769
1772
1754
1744
1754
1750
1746
1758
1818
1868
1947
1971
1935
1877
1822
1783
1740
1708
1671
1670
1666
1676
1682
1687
1711
1618
1516
1717
2542
4095
4095
3026
2181
1665
1515
1502
1520
1558
1566
1614
1637
1668
1688
1707
1740
1755
1779
1790
1789
1799
1797
1779
1789
1778
1786
1791
1798
1812
1806
1808
1792
1782
1793
1791
1808
1814
1808
1814
1809
1824
1823
1819
1824
1809
1822
1814
1808
1827
1894
1931
2001
2046
2015
1971
1920
1878
1827
1793
1767
1776
1770
1774
1791
1786
1795
1722
1595
1773
2469
4080
4095
3141
2339
1820
1616
1585
1595
1638
1661
1693
1714
1740
1765
1776
1798
1806
1810
1840
1819
1829
1829
1824
1829
1797
1820
1813
1809
1839
1824
1837
1823
1815
1827
1821
1839
1841
1838
1850
1854
1865
1869
1865
1862
1847
1866
1856
1849
1905
1947
1984
2068
2073
2046
1984
1940
1899
1855
1833
1808
1808
1797
1807
1818
1813
1789
1654
1660
2045
3086
4095
3623
2670
2101
1730
1648
1623
1635
1675
1689
1728
1743
1757
1802
1805
1834
1825
1831
1851
1824
1835
1831
1822
1828
1822
1827
1822
1824
1840
1822
1835
1825
1821
1827
1811
1835
1830
1840
1846
1840
1837
1829
1830
1829
1810
1819
1813
1845
1909
1911
2015
2015
1974
1925
1856
1814
1761
1719
1707
1675
1680
1670
1662
1665
1616
1485
1477
1853
2854
3747
3181
2384
1829
1488
1370
1378
1366
1383
1403
1407
1434
1451
1427
1450
1445
1463
1456
1443
1447
1413
1407
1379
1360
1353
1337
1344
1326
1311
1321
1286
1296
1259
1247
1264
1248
1259
1251
1247
1262
1247
1251
1227
1194
1195
1170
1189
1204
1247
1288
1366
1385
1348
1281
1218
1163
1120
1070
1043
1045
1008
1013
1009
999
964
791
843
1281
2325
2893
2428
1718
1219
939
879
845
863
878
899
942
938
969
981
998
1034
1042
1067
1070
1072
1086
1071
1086
1082
1103
1136
1125
1167
1179
1183
1206
1200
1219
1218
1232
1264
1264
1298
1302
1323
1338
1343
1346
1346
1354
1363
1377
1456
1486
1584
1638
1630
1607
1535
1519
1488
1455
1472
1471
1478
1495
1509
1535
1559
1456
1420
1712
2544
3761
3558
2723
2127
1746
1586
1535
1555
1569
1605
1616
1649
1674
1691
1725
1721
1744
1755
1747
1776
1753
1767
1767
1763
1791
1799
1824
1846
1850
1862
1856
1859
1872
1891
1913
1922
1942
1954
1946
1972
1968
1978
1986
1972
1999
1984
2000
2058
2082
2148
2224
2211
2195
2128
2098
2045
2007
1995
1965
1980
1969
1986
1997
1969
1921
1779
1884
2399
3666
4095
3535
2719
2267
1983
1921
1905
1922
1965
1973
2005
2017
2032
2034
2053
2086
2080
2085
2095
2079
2088
2069
2065
2069
2055
2081
2069
2078
2083
2070
2080
2045
2061
2067
2066
2079
2067
2087
2087
2089
2098
2082
2077
2073
2063
2074
2078
2133
2160
2229
2269
2227
2174
2121
2077
2057
1986
1978
1974
1969
1993
1985
1995
1961
1814
1834
2175
3152
4095
3786
2878
2332
1983
1856
1815
1831
1839
1851
1873
1891
1918
1905
1909
1923
1904
1926
1917
1918
1903
1875
1885
1869
1885
1872
1863
1889
1875
1887
1872
1851
1851
1841
1857
1862
1854
1871
1859
1865
1868
1866
1873
1862
1870
1865
1874
1949
1958
2054
2085
2030
1983
1914
1890
1852
1808
1793
1771
1799
1796
1783
1807
1749
1622
1664
2066
3109
3957
3328
2541
2063
1759
1651
1677
1686
1693
1745
1746
1781
1807
1818
1840
1829
1855
1845
1847
1874
1843
1855
1848
1838
1859
1846
1866
1872
1870
1872
1855
1852
1841
1838
1861
1851
1877
1877
1872
1890
1877
1892
1881
1874
1904
1891
1949
1980
2046
2115
2071
2023
1957
1908
1898
1839
1837
1813
1821
1840
1824
1849
1826
1693
1680
1968
2841
4058
3678
2802
2209
1843
1699
1680
1712
1716
1770
1795
1810
1829
1831
1874
1898
1893
1910
1887
1903
1885
1867
1879
1873
1889
1887
1887
1905
1898
1915
1896
1888
1899
1885
1894
1902
1904
1920
1919
1935
1922
1918
1923
1901
1908
1941
1991
2027
2085
2127
2096
2031
1984
1935
1904
1862
1830
1840
1808
1838
1829
1831
1811
1648
1670
2043
3026
4095
3583
2707
2128
1757
1646
1615
1653
1678
1696
1750
1760
1795
1793
1803
1840
1829
1855
1834
1840
1845
1817
1821
1809
1808
1830
1825
1854
1856
1850
1856
1826
1834
1817
1826
1840
1830
1857
1865
1863
1886
1856
1872
1849
1847
1907
1933
1994
2044
2026
1998
1901
1871
1814
1786
1760
1723
1739
1743
1741
1762
1744
1648
1533
1762
2506
3775
3853
2929
2242
1783
1535
1535
1535
1577
1620
1632
1667
1684
1712
1731
1729
1761
1751
1756
1763
1734
1745
1734
1725
1729
1726
1743
1732
1744
1765
1757
1754
1744
1749
1758
1745
1761
1761
1766
1793
1781
1791
1771
1773
1773
1806
1859
1904
1965
1965
1893
1854
1805
1758
1723
1675
1680
1680
1675
1684
1679
1681
1565
1479
1757
2535
3788
3663
2784
2159
1707
1535
1520
1530
1570
1595
1634
1651
1678
1708
1727
1764
1771
1783
1797
1786
1789
1776
1775
1780
1775
1795
1793
1808
1823
1823
1837
1818
1811
1819
1813
1840
1839
1846
1872
1871
1886
1872
1869
1878
1872
1940
1959
2047
2097
2064
2023
1941
1907
1879
1833
1822
1808
1808
1815
1805
1827
1809
1662
1665
2013
2928
3994
3534
2723
2189
1845
1699
1680
1711
1721
1770
1785
1811
1830
1835
1858
1865
1879
1883
1874
1888
1861
1863
1856
1843
1867
1853
1857
1872
1857
1874
1854
1848
1857
1845
1861
1855
1874
1877
1875
1889
1882
1879
1903
1883
1935
1964
2000
2093
2075
2034
1957
1913
1882
1821
1805
1775
1776
1779
1770
1788
1777
1712
1591
1712
2269
3413
3918
3104
2381
1936
1651
1583
1600
1597
1646
1657
1674
1697
1701
1733
1741
1751
1767
1754
1761
1726
1717
1713
1697
1694
1681
1690
1693
1685
1712
1676
1670
1662
1648
1648
1646
1647
1648
1631
1651
1639
1628
1630
1616
1638
1666
1701
1778
1782
1766
1675
1617
1568
1483
1462
1407
1388
1391
1362
1375
1357
1334
1168
1119
1488
2407
3344
2959
2153
1574
1174
1062
1063
1069
1095
1101
1131
1151
1153
1183
1173
1177
1177
1153
1171
1133
1120
1106
1079
1078
1061
1067
1075
1069
1097
1071
1074
1072
1053
1071
1058
1075
1086
1091
1107
1093
1104
1107
1104
1119
1168
1210
1269
1335
1342
1289
1239
1207
1149
1125
1087
1070
1063
1066
1082
1072
1075
992
874
1094
1787
2906
3056
2381
1719
1232
1040
1009
1023
1073
1088
1115
1146
1152
1194
1203
1235
1259
1263
1297
1284
1309
1314
1303
1332
1329
1335
1363
1360
1398
1374
1390
1387
1377
1420
1419
1438
1458
1458
1495
1489
1527
1535
1522
1557
1575
1645
1690
1774
1831
1779
1734
1686
1648
1641
1600
1591
1587
1584
1619
1613
1639
1621
1478
1491
1855
2838
3994
3536
2659
2058
1682
1572
1535
1602
1614
1650
1669
1694
1721
1729
1761
1776
1779
1817
1791
1811
1811
1801
1814
1791
1809
1815
1814
1843
1837
1847
1852
1838
1865
1845
1867
1884
1891
1923
1911
1939
1931
1936
1950
1935
1973
2026
2058
2160
2160
2139
2089
2009
2001
1940
1922
1893
1890
1914
1899
1932
1924
1884
1743
1771
2234
3377
4095
3888
2849
2308
1920
1776
1776
1775
1823
1840
1847
1894
1891
1932
1938
1952
1985
1973
2003
1991
1984
2003
1982
2011
2000
1991
2029
2014
2041
2027
2030
2055
2028
2059
2061
2067
2111
2103
2125
2128
2124
2145
2122
2151
2175
2211
2277
2327
2344
2288
2214
2183
2141
2117
2078
2039
2063
2035
2046
2035
2037
1974
1829
2045
2619
3853
4095
3376
2736
2295
2006
1924
1901
1913
1933
1951
1985
1982
2015
2014
2033
2070
2033
2067
2057
2031
2047
2014
2025
2003
1999
2020
2000
2032
2013
2000
2011
1993
2014
2000
2004
2034
2014
2042
2039
2042
2064
2019
2030
2017
2074
2106
2144
2219
2194
2146
2075
2000
1984
1936
1918
1906
1879
1910
1889
1898
1904
1747
1739
2038
2771
3825
3525
2841
2317
1936
1767
1698
1738
1746
1769
1805
1817
1841
1856
1863
1899
1886
1918
1914
1905
1902
1873
1895
1867
1859
1879
1857
1881
1877
1877
1883
1849
1863
1853
1856
1883
1877
1898
1890
1897
1905
1872
1902
1879
1888
1925
1947
1999
2071
2070
2055
1963
1933
1865
1839
1817
1771
1790
1777
1787
1801
1766
1727
1587
1696
2193
3287
4048
3228
2471
1974
1645
1573
1558
1605
1646
1656
1707
1712
1731
1755
1765
1792
1797
1808
1814
1799
1808
1791
1802
1803
1776
1804
1791
1801
1826
1813
1837
1793
1790
1815
1808
1835
1819
1830
1843
1834
1869
1844
1852
1856
1836
1894
1919
1957
2061
2042
2015
1926
1881
1843
1790
1775
1744
1754
1763
1745
1774
1756
1738
1611
1651
2142
3287
4095
3545
2584
2000
1628
1534
1552
1561
1617
1639
1686
1716
1725
1767
1759
1785
1812
1806
1839
1826
1822
1822
1797
1818
1791
1794
1803
1794
1815
1787
1789
1795
1776
1794
1789
1815
1831
1809
1837
1818
1831
1839
1824
1851
1830
1827
1857
1905
1951
2005
2061
2017
1955
1914
1853
1822
1797
1758
1763
1739
1758
1759
1751
1773
1664
1587
1820
2559
4027
3963
2993
2273
1776
1585
1529
1573
1603
1628
1688
1701
1731
1753
1767
1808
1807
1830
1847
1837
1858
1837
1841
1835
1805
1820
1805
1823
1818
1792
1808
1776
1793
1798
1785
1823
1798
1828
1833
1815
1845
1825
1832
1837
1812
1839
1818
1854
1910
1930
2047
2037
2014
1938
1863
1852
1792
1788
1753
1739
1774
1748
1773
1773
1730
1627
1581
1929
2881
4095
3718
2739
2123
1703
1535
1568
1579
1619
1648
1667
1726
1728
1766
1781
1795
1833
1819
1835
1840
1823
1831
1798
1811
1808
1797
1819
1804
1822
1802
1794
1818
1787
1804
1808
1779
1831
1827
1845
1846
1833
1868
1840
1843
1839
1841
1867
1895
1931
1999
2062
2047
1975
1919
1879
1834
1815
1758
1758
1750
1757
1779
1761
1776
1679
1558
1775
2435
3766
3957
3034
2336
1826
1613
1570
1571
1615
1628
1682
1709
1719
1756
1761
1802
1813
1823
1857
1834
1856
1841
1832
1835
1805
1813
1812
1819
1835
1813
1823
1808
1792
1815
1803
1835
1834
1840
1873
1855
1872
1870
1861
1879
1850
1857
1872
1925
1961
2007
2094
2067
1999
1946
1874
1857
1817
1776
1793
1766
1798
1799
1792
1810
1697
1618
1825
2498
3818
3851
2993
2315
1851
1648
1584
1633
1651
1687
1721
1724
1777
1791
1799
1840
1829
1857
1856
1853
1866
1840
1856
1839
1820
1835
1821
1840
1831
1830
1834
1809
1813
1803
1810
1831
1810
1842
1838
1841
1859
1843
1871
1861
1841
1856
1853
1926
1938
2011
2077
2022
1984
1903
1855
1831
1773
1771
1749
1751
1773
1744
1760
1729
1612
1568
1814
2649
3870
3674
2819
2149
1713
1520
1488
1534
1535
1599
1602
1617
1646
1648
1684
1685
1687
1716
1691
1707
1674
1660
1649
1621
1628
1607
1598
1621
1596
1600
1574
1564
1572
1522
1535
1527
1535
1556
1527
1559
1554
1535
1534
1497
1509
1490
1520
1574
1576
1680
1674
1633
1572
1488
1470
1392
1348
1332
1304
1318
1303
1311
1311
1246
1126
1157
1584
2619
3219
2767
2001
1470
1170
1077
1113
1126
1155
1185
1193
1241
1237
1264
1283
1271
1299
1295
1280
1295
1274
1291
1277
1274
1285
1261
1292
1286
1291
1295
1271
1295
1280
1301
1310
1307
1353
1360
1360
1368
1354
1385
1370
1360
1388
1375
1455
1476
1563
1657
1631
1613
1534
1499
1474
1412
1424
1392
1403
1419
1415
1440
1425
1363
1259
1408
2063
3171
3449
2777
2085
1625
1374
1347
1387
1408
1465
1486
1520
1567
1568
1621
1623
1651
1682
1678
1711
1693
1694
1697
1677
1696
1689
1713
1725
1715
1739
1716
1728
1737
1727
1759
1744
1775
1797
1798
1840
1818
1833
1840
1834
1853
1841
1890
1933
1946
2071
2064
2031
1980
1909
1897
1830
1807
1792
1776
1808
1801
1813
1831
1779
1661
1710
2163
3261
4095
3583
2727
2192
1835
1691
1717
1728
1764
1798
1807
1857
1853
1877
1909
1903
1943
1925
1939
1947
1937
1959
1932
1937
1945
1936
1970
1952
1974
1974
1973
1984
1949
1969
1984
1984
2029
2001
2021
2032
2028
2055
2030
2015
2018
2016
2110
2118
2198
2257
2222
2201
2103
2064
2020
1959
1971
1936
1959
1965
1963
1983
1948
1853
1771
2003
2693
3847
3897
3103
2495
2119
1856
1803
1810
1838
1872
1881
1909
1931
1936
1971
1970
1999
2009
1995
2019
1984
1987
1971
1943
1968
1950
1983
1973
1966
1974
1945
1946
1938
1927
1954
1936
1961
1965
1952
1974
1949
1970
1965
1938
1968
1965
2026
2043
2087
2198
2157
2113
2033
1977
1965
1907
1904
1875
1868
1895
1882
1894
1891
1796
1698
1841
2503
3919
4095
3417
2559
2032
1747
1670
1709
1712
1767
1806
1810
1846
1854
1886
1917
1903
1935
1919
1935
1926
1906
1924
1893
1909
1899
1895
1921
1907
1918
1898
1895
1911
1885
1909
1919
1915
1949
1915
1937
1943
1926
1946
1909
1926
1954
1984
2042
2112
2149
2098
2012
1973
1908
1887
1840
1823
1822
1803
1821
1825
1814
1808
1629
1663
2032
3035
4095
3777
2826
2177
1730
1601
1566
1620
1645
1666
1727
1744
1779
1791
1797
1834
1831
1865
1843
1826
1838
1813
1829
1809
1797
1825
1811
1838
1823
1799
1839
1791
1795
1791
1799
1820
1810
1841
1840
1834
1858
1839
1851
1837
1833
1904
1919
2033
2054
2010
1980
1887
1877
1834
1791
1777
1739
1761
1759
1774
1792
1751
1643
1598
1929
2821
3897
3651
2800
2198
1781
1567
1555
1568
1618
1678
1683
1727
1734
1749
1793
1783
1831
1818
1824
1849
1818
1841
1831
1809
1823
1790
1809
1817
1804
1835
1809
1820
1793
1789
1816
1797
1828
1838
1841
1872
1847
1861
1844
1854
1917
1926
2005
2061
2070
2047
1953
1925
1866
1815
1805
1776
1806
1808
1808
1807
1781
1712
1599
1857
2512
3461
3456
2786
2261
1921
1681
1632
1634
1669
1718
1712
1747
1763
1781
1808
1815
1850
1840
1833
1861
1840
1843
1808
1798
1825
1803
1821
1808
1810
1825
1811
1829
1808
1813
1827
1821
1851
1856
1858
1877
1842
1863
1855
1904
1953
1959
2055
2037
2032
1989
1889
1865
1815
1779
1773
1750
1772
1751
1762
1782
1729
1598
1705
2194
3167
3652
3024
2377
1970
1702
1567
1590
1605
1634
1674
1680
1723
1738
1761
1783
1783
1827
1799
1806
1803
1762
1776
1747
1744
1751
1726
1771
1761
1781
1781
1764
1789
1771
1776
1788
1785
1808
1801
1799
1829
1815
1843
1856
1906
1950
2010
2047
2000
1936
1890
1819
1802
1742
1719
1718
1709
1727
1707
1719
1668
1504
1590
2032
3133
4095
3515
2608
1966
1559
1437
1415
1475
1498
1557
1607
1614
1659
1666
1690
1729
1731
1758
1749
1760
1774
1746
1764
1730
1742
1747
1746
1773
1755
1775
1779
1757
1783
1776
1788
1794
1776
1813
1812
1833
1827
1809
1892
1906
1975
2072
2013
1979
1893
1865
1831
1757
1744
1699
1709
1728
1715
1747
1713
1641
1520
1667
2367
3782
4095
3267
2354
1785
1478
1434
1469
1492
1559
1583
1615
1658
1667
1712
1698
1731
1753
1741
1761
1746
1751
1746
1712
1731
1708
1725
1721
1700
1712
1682
1707
1729
1712
1730
1712
1737
1747
1747
1776
1747
1744
1795
1795
1874
2012
2021
1971
1910
1893
1839
1808
1761
1727
1751
1733
1733
1753
1744
1731
1582
1600
1999
3089
4095
3830
2801
2114
1658
1559
1535
1584
1627
1648
1690
1692
1728
1782
1825
1881
1869
1898
1897
1885
1921
1898
1904
1899
1883
1905
1891
1889
1883
1882
1924
1901
1889
1885
1891
1938
1931
1955
1968
1938
1963
1952
1987
2025
2032
2131
2152
2151
2099
2007
1989
1941
1910
1877
1872
1888
1857
1872
1887
1847
1733
1729
2118
2993
3931
3566
2787
2256
1871
1670
1669
1681
1719
1758
1765
1823
1820
1847
1872
1884
1920
1904
1936
1919
1890
1895
1872
1902
1889
1857
1862
1840
1847
1853
1843
1855
1827
1841
1838
1844
1872
1853
1890
1886
1885
1907
1893
1939
1955
1995
2083
2063
2020
1938
1872
1872
1810
1789
1775
1750
1788
1746
1772
1777
1678
1615
1861
2544
3568
3479
2806
2219
1862
1629
1581
1605
1611
1665
1723
1757
1804
1790
1836
1878
1883
1913
1875
1889
1863
1850
1866
1839
1849
1835
1838
1873
1835
1847
1824
1807
1837
1840
1873
1847
1831
1874
1891
1959
1934
1884
1910
1935
2011
2064
2125
2133
2070
2059
1989
1925
1886
1814
1818
1807
1795
1826
1795
1806
1776
1663
1751
2145
3027
3961
3298
2559
2032
1730
1583
1535
1611
1609
1664
1711
1723
1744
1753
1785
1816
1829
1856
1822
1821
1798
1783
1800
1769
1767
1747
1751
1777
1749
1773
1753
1747
1770
1744
1775
1774
1763
1799
1786
1812
1824
1814
1825
1793
1859
1903
1911
2012
2006
2017
1951
1858
1819
1751
1750
1718
1695
1709
1712
1746
1719
1684
1611
1636
2029
2896
3882
3264
2489
1999
1657
1505
1526
1526
1592
1613
1648
1702
1715
1762
1774
1792
1831
1824
1856
1839
1824
1834
1792
1802
1771
1746
1772
1751
1760
1746
1730
1744
1702
1729
1731
1737
1763
1731
1769
1754
1748
1762
1744
1761
1751
1739
1766
1751
1843
1882
1967
2076
2001
1981
1904
1859
1840
1790
1791
1769
1776
1799
1783
1825
1814
1747
1665
1789
2556
4095
4095
3878
2640
1936
1597
1521
1591
1600
1669
1681
1728
1778
1783
1814
1821
1843
1874
1871
1907
1904
1904
1906
1869
1878
1853
1845
1856
1831
1858
1834
1818
1837
1802
1828
1814
1821
1839
1807
1850
1811
1791
1826
1808
1840
1840
1840
1841
1799
1863
1869
1941
1949
1856
1835
1761
1712
1666
1603
1600
1568
1535
1568
1535
1557
1529
1456
1360
1520
2349
3803
3933
2961
2079
1499
1271
1255
1309
1327
1395
1422
1455
1506
1511
1561
1573
1603
1650
1641
1674
1668
1678
1689
1667
1690
1663
1659
1674
1644
1655
1637
1645
1660
1653
1682
1680
1703
1715
1699
1744
1732
1744
1763
1738
1759
1742
1750
1762
1791
1861
1890
2003
2007
1951
1904
1839
1813
1797
1734
1750
1733
1749
1776
1744
1757
1721
1598
1629
1979
3013
4095
3834
2827
2118
1690
1517
1520
1586
1615
1668
1688
1729
1780
1781
1825
1824
1854
1893
1883
1911
1905
1919
1914
1893
1910
1891
1895
1904
1869
1872
1849
1859
1882
1873
1893
1895
1919
1933
1917
1951
1940
1955
1959
1937
1958
1941
1968
2015
2028
2128
2177
2164
2122
2022
2006
1935
1914
1904
1880
1909
1895
1904
1915
1901
1840
1736
1997
2645
3647
3614
2917
2387
2002
1799
1773
1765
1817
1853
1853
1904
1904
1940
1977
1981
2000
1998
2027
2030
2017
2040
2006
2002
1994
1986
1994
1970
1968
1967
1936
1967
1939
1945
1936
1937
1986
1968
1979
1982
1989
2003
1959
1953
1969
1957
2032
2043
2097
2170
2163
2173
2086
2014
1954
1894
1899
1857
1866
1863
1866
1905
1872
1834
1728
1872
2405
3350
3583
2913
2338
2018
1765
1712
1712
1703
1753
1760
1787
1809
1813
1846
1840
1865
1866
1863
1885
1857
1856
1840
1825
1837
1811
1797
1808
1788
1805
1783
1786
1786
1779
1792
1759
1792
1795
1795
1815
1795
1808
1802
1777
1795
1759
1808
1864
1872
1969
1971
1954
1883
1808
1777
1717
1705
1680
1663
1683
1662
1675
1680
1635
1535
1597
2083
3093
3664
2949
2257
1845
1584
1487
1520
1535
1565
1584
1597
1649
1658
1696
1710
1721
1756
1749
1779
1770
1761
1765
1743
1756
1751
1733
1755
1739
1747
1755
1734
1756
1729
1755
1761
1755
1797
1778
1798
1797
1791
1808
1780
1797
1815
1872
1917
1969
2045
1983
1929
1904
1839
1808
1776
1735
1751
1738
1756
1757
1750
1776
1669
1619
1874
2731
4095
3933
2923
2195
1751
1628
1610
1649
1666
1695
1741
1753
1783
1789
1806
1846
1842
1887
1881
1882
1899
1870
1874
1857
1847
1861
1840
1867
1867
1868
1869
1839
1855
1847
1849
1872
1861
1879
1878
1872
1905
1882
1889
1872
1878
1942
1946
2015
2090
2047
2027
1927
1909
1862
1823
1809
1774
1785
1792
1776
1777
1744
1690
1581
1763
2402
3643
3829
2992
2303
1858
1613
1587
1610
1629
1677
1685
1715
1753
1769
1802
1793
1837
1839
1840
1867
1855
1860
1861
1851
1863
1855
1871
1863
1857
1850
1831
1834
1824
1835
1877
1872
1891
1867
1851
1867
1870
1877
1853
1831
1858
1866
1904
1953
2015
2023
1938
1887
1815
1776
1723
1665
1673
1673
1679
1689
1665
1671
1534
1433
1689
2310
3253
3259
2643
2102
1683
1498
1456
1469
1520
1535
1585
1590
1610
1648
1644
1680
1666
1691
1713
1702
1724
1717
1714
1737
1725
1744
1731
1753
1775
1775
1790
1767
1793
1796
1778
1807
1789
1819
1825
1823
1855
1833
1835
1822
1857
1902
1925
2039
2044
1985
1962
1871
1855
1809
1783
1796
1755
1789
1781
1767
1804
1743
1621
1675
2097
3223
4074
3520
2606
2000
1693
1570
1586
1606
1626
1698
1694
1731
1743
1754
1806
1792
1815
1819
1797
1842
1802
1802
1808
1782
1825
1806
1815
1837
1815
1857
1826
1839
1851
1824
1866
1834
1856
1877
1841
1904
1854
1871
1876
1851
1955
1926
2031
2098
2027
2022
1931
1915
1889
1823
1845
1798
1829
1837
1808
1868
1813
1731
1681
1927
2751
3696
3619
2837
2220
1835
1616
1630
1648
1663
1729
1718
1778
1790
1783
1846
1829
1863
1870
1850
1891
1847
1867
1842
1822
1856
1811
1853
1840
1830
1857
1808
1834
1827
1815
1855
1825
1854
1843
1835
1874
1840
1867
1866
1865
1939
1936
2066
2094
2035
2015
1919
1922
1860
1808
1828
1777
1805
1813
1805
1841
1781
1679
1678
2041
2957
3691
3414
2687
2164
1808
1648
1690
1702
1711
1780
1758
1827
1826
1837
1889
1865
1904
1895
1885
1921
1894
1916
1875
1870
1904
1873
1904
1891
1869
1887
1840
1877
1862
1857
1904
1871
1911
1891
1903
1939
1883
1909
1898
1931
1981
1991
2107
2086
2032
2000
1914
1904
1855
1814
1847
1795
1789
1776
1840
1870
1737
1680
1909
2462
3394
3318
2799
2317
1971
1808
1718
1751
1774
1801
1839
1821
1873
1877
1873
1911
1888
1931
1933
1917
1941
1883
1904
1879
1893
1918
1869
1920
1904
1907
1925
1877
1900
1873
1884
1907
1876
1925
1906
1898
1923
1907
1939
1936
1957
2030
2064
2112
2069
1998
1958
1877
1870
1834
1810
1818
1792
1807
1791
1791
1744
1584
1771
2231
3134
3504
2887
2337
1928
1669
1609
1578
1642
1653
1677
1712
1696
1764
1767
1776
1808
1776
1819
1791
1761
1764
1728
1745
1739
1730
1750
1729
1758
1759
1756
1767
1741
1760
1756
1770
1778
1773
1791
1797
1802
1813
1798
1851
1866
1893
2000
1990
1975
1886
1823
1799
1743
1719
1682
1669
1696
1668
1695
1682
1633
1502
1535
2054
3158
4009
3321
2463
1904
1535
1440
1456
1468
1525
1559
1591
1634
1631
1663
1678
1698
1725
1714
1729
1713
1713
1716
1690
1702
1693
1709
1728
1723
1753
1745
1740
1751
1741
1753
1747
1759
1777
1771
1801
1799
1795
1798
1804
1871
1898
1984
2017
1968
1914
1854
1816
1790
1727
1715
1679
1705
1719
1700
1712
1670
1533
1566
1925
2960
4095
3694
2751
2047
1622
1457
1472
1534
1560
1616
1630
1675
1710
1711
1766
1775
1783
1808
1793
1821
1797
1790
1808
1777
1808
1774
1781
1804
1793
1823
1790
1790
1807
1786
1837
1818
1844
1857
1840
1887
1863
1872
1905
1931
2005
2083
2120
2106
2006
1969
1907
1874
1846
1803
1838
1808
1814
1839
1815
1821
1678
1680
2041
2922
4077
3751
2893
2256
1767
1623
1582
1616
1673
1687
1758
1769
1794
1833
1818
1870
1854
1859
1875
1856
1877
1837
1836
1840
1819
1857
1840
1859
1857
1838
1858
1823
1842
1861
1827
1874
1860
1891
1895
1883
1910
1883
1941
1985
1997
2133
2107
2075
2006
1931
1926
1845
1830
1821
1781
1821
1799
1823
1835
1728
1601
1733
2315
3478
3986
3373
2553
2021
1694
1579
1616
1618
1667
1711
1712
1760
1746
1788
1808
1798
1858
1835
1847
1845
1809
1837
1794
1811
1829
1807
1838
1818
1832
1853
1818
1838
1808
1833
1821
1814
1851
1840
1847
1846
1831
1888
1903
1941
2037
2017
2032
1933
1879
1829
1767
1775
1715
1725
1750
1712
1762
1738
1681
1535
1631
2208
3248
3759
3200
2448
1965
1593
1497
1531
1534
1633
1625
1673
1713
1683
1753
1744
1776
1802
1774
1808
1772
1781
1796
1754
1795
1777
1788
1802
1776
1840
1795
1799
1826
1775
1818
1790
1835
1856
1830
1892
1859
1869
1905
1909
2015
2069
2069
2031
1946
1923
1840
1831
1810
1761
1814
1776
1796
1805
1767
1689
1609
1951
2673
3494
3323
2679
2239
1897
1665
1664
1632
1689
1712
1713
1785
1757
1818
1846
1840
1893
1853
1876
1859
1815
1859
1805
1818
1819
1808
1847
1810
1857
1858
1829
1877
1823
1854
1856
1835
1887
1842
1886
1890
1872
1933
1914
1983
2064
2036
2047
1943
1907
1868
1808
1810
1731
1757
1764
1737
1776
1739
1693
1569
1776
2419
3365
3474
2835
2256
1907
1623
1584
1581
1583
1638
1621
1684
1712
1719
1787
1763
1810
1808
1801
1837
1793
1807
1797
1767
1808
1771
1796
1783
1771
1799
1766
1790
1776
1782
1827
1780
1822
1827
1809
1844
1809
1873
1915
1939
2064
2046
2038
1963
1876
1873
1792
1797
1763
1728
1777
1734
1772
1758
1670
1591
1749
2393
3516
3741
3002
2302
1886
1615
1535
1597
1599
1665
1693
1724
1751
1744
1808
1812
1820
1863
1828
1858
1840
1813
1839
1793
1814
1794
1788
1835
1803
1840
1822
1813
1845
1797
1830
1819
1835
1882
1840
1875
1879
1914
1995
1999
2128
2102
2061
2031
1923
1914
1852
1810
1824
1788
1808
1795
1808
1841
1710
1639
1851
2628
4095
4095
3328
2406
1810
1607
1517
1588
1600
1652
1685
1682
1763
1749
1751
1779
1736
1787
1779
1763
1785
1739
1757
1731
1734
1742
1709
1740
1723
1712
1735
1687
1712
1707
1690
1719
1687
1755
1717
1726
1723
1766
1825
1883
1966
1931
1842
1813
1744
1696
1677
1595
1612
1600
1600
1634
1603
1629
1456
1424
1818
2822
4095
3840
2739
2026
1521
1402
1390
1430
1488
1488
1575
1594
1622
1678
1665
1726
1728
1744
1773
1744
1789
1760
1745
1774
1734
1773
1744
1749
1787
1741
1787
1774
1801
1806
1781
1831
1813
1837
1859
1829
1863
1877
1909
1967
2035
2078
2006
1946
1920
1856
1850
1794
1773
1791
1763
1809
1796
1796
1710
1535
1794
2453
3758
4095
3187
2455
1867
1605
1577
1563
1629
1631
1696
1744
1741
1789
1791
1804
1841
1819
1861
1835
1831
1870
1820
1843
1814
1818
1847
1814
1861
1826
1827
1842
1808
1840
1819
1852
1872
1833
1894
1876
1879
1898
1877
1936
1915
1978
2077
2021
2015
1906
1875
1871
1781
1798
1755
1776
1792
1777
1818
1757
1616
1623
1930
2903
3952
3719
2832
2162
1741
1535
1554
1600
1609
1680
1680
1712
1744
1739
1791
1799
1831
1845
1811
1844
1815
1818
1827
1792
1840
1813
1825
1849
1824
1850
1818
1821
1834
1813
1859
1843
1875
1885
1872
1897
1877
1878
1898
1895
1973
1968
2064
2098
2038
2019
1920
1885
1859
1797
1823
1775
1800
1813
1781
1826
1730
1612
1822
2383
3446
3615
3011
2391
1942
1725
1616
1627
1676
1681
1753
1749
1787
1826
1839
1881
1870
1883
1890
1872
1881
1856
1851
1856
1831
1874
1843
1861
1872
1836
1873
1835
1857
1847
1842
1885
1872
1890
1885
1863
1908
1872
1895
1890
1905
1982
1981
2075
2082
2032
2000
1901
1877
1852
1803
1809
1777
1798
1806
1787
1808
1655
1616
1909
2559
3572
3360
2717
2197
1808
1658
1584
1620
1659
1674
1707
1701
1740
1758
1750
1806
1790
1826
1826
1792
1816
1757
1759
1746
1729
1782
1747
1791
1787
1774
1794
1758
1788
1780
1771
1813
1795
1823
1835
1814
1845
1808
1830
1822
1846
1906
1921
2022
2011
1938
1913
1825
1789
1761
1726
1744
1702
1722
1729
1718
1716
1575
1585
1920
2770
3927
3433
2672
2076
1664
1535
1506
1555
1587
1614
1685
1677
1712
1746
1761
1807
1790
1807
1823
1791
1821
1795
1794
1777
1749
1767
1760
1794
1787
1775
1797
1762
1783
1798
1789
1825
1806
1826
1847
1803
1840
1808
1830
1815
1806
1858
1882
1946
2036
2029
1998
1891
1847
1808
1757
1759
1701
1729
1731
1734
1759
1729
1666
1535
1723
2457
3795
4062
3085
2314
1805
1488
1503
1511
1568
1622
1622
1680
1699
1727
1777
1760
1791
1794
1804
1811
1777
1803
1777
1746
1772
1751
1787
1790
1778
1808
1776
1803
1787
1771
1813
1794
1825
1824
1826
1850
1825
1860
1841
1836
1867
1853
1930
1943
2001
2112
2039
1996
1932
1872
1833
1773
1776
1753
1748
1790
1765
1795
1750
1604
1668
2059
3170
4095
3619
2726
2034
1666
1535
1535
1603
1599
1673
1683
1712
1768
1743
1795
1802
1802
1840
1809
1840
1809
1775
1807
1755
1799
1776
1766
1812
1777
1809
1799
1771
1808
1782
1815
1817
1829
1840
1811
1851
1814
1831
1853
1818
1853
1879
1917
1965
2031
2074
2000
1935
1918
1839
1829
1782
1753
1771
1718
1767
1749
1759
1717
1573
1741
2271
3450
4017
3241
2477
1894
1590
1554
1534
1611
1615
1650
1699
1703
1755
1757
1787
1829
1821
1846
1827
1815
1826
1789
1815
1782
1783
1793
1764
1806
1780
1779
1798
1758
1788
1776
1808
1829
1808
1856
1824
1840
1857
1838
1871
1838
1849
1909
1911
1995
2067
2055
2018
1913
1895
1840
1789
1795
1759
1789
1767
1766
1794
1754
1679
1602
1881
2701
3847
3812
2896
2240
1785
1554
1566
1584
1618
1668
1677
1737
1734
1773
1821
1809
1857
1849
1869
1881
1833
1856
1815
1818
1827
1808
1856
1831
1842
1853
1822
1840
1808
1822
1843
1839
1872
1855
1870
1889
1867
1883
1860
1874
1893
1898
1962
1988
2098
2112
2030
1985
1909
1871
1851
1798
1808
1794
1795
1822
1808
1828
1703
1607
1854
2419
3447
3468
2858
2325
1920
1703
1615
1645
1680
1685
1754
1744
1781
1803
1801
1843
1835
1856
1871
1853
1884
1840
1852
1855
1814
1855
1837
1849
1871
1822
1870
1831
1827
1856
1831
1889
1862
1874
1888
1862
1903
1870
1874
1873
1847
1933
1933
1980
2076
2064
2063
1939
1900
1859
1792
1791
1746
1753
1775
1757
1809
1774
1690
1603
1798
2475
3477
3494
2833
2224
1855
1600
1561
1597
1595
1655
1655
1696
1731
1733
1799
1795
1819
1818
1810
1837
1794
1796
1789
1757
1798
1776
1798
1821
1808
1818
1777
1795
1797
1782
1825
1797
1815
1819
1815
1850
1825
1839
1822
1797
1836
1847
1894
1953
2021
2064
1971
1913
1865
1805
1798
1737
1743
1750
1742
1778
1750
1751
1664
1535
1825
2521
3885
3913
2962
2297
1774
1567
1535
1566
1633
1636
1681
1711
1711
1767
1754
1792
1801
1797
1840
1792
1808
1803
1776
1819
1771
1791
1790
1778
1814
1791
1788
1783
1769
1802
1781
1814
1821
1809
1852
1824
1858
1851
1831
1870
1826
1856
1902
1907
2000
2047
2037
1980
1885
1879
1815
1798
1772
1743
1770
1740
1760
1761
1733
1662
1571
1870
2686
3904
3825
2878
2218
1746
1535
1535
1535
1611
1639
1667
1717
1712
1762
1775
1776
1833
1796
1826
1834
1808
1833
1790
1808
1806
1798
1820
1789
1819
1811
1788
1825
1791
1814
1817
1822
1862
1826
1870
1870
1853
1891
1861
1880
1867
1858
1938
1936
2023
2087
2033
2005
1909
1885
1829
1776
1776
1751
1778
1775
1771
1802
1747
1659
1616
1931
2859
3921
3687
2801
2172
1750
1569
1581
1594
1616
1668
1664
1720
1723
1744
1789
1778
1808
1811
1808
1840
1799
1823
1805
1783
1819
1776
1807
1796
1803
1831
1799
1807
1779
1780
1805
1797
1823
1827
1828
1863
1825
1854
1835
1827
1845
1827
1895
1914
1962
2070
2016
1988
1901
1846
1840
1775
1781
1748
1760
1791
1776
1799
1770
1664
1615
1825
2597
3698
3639
2906
2244
1797
1600
1579
1605
1610
1673
1673
1701
1746
1738
1789
1787
1808
1842
1818
1840
1807
1789
1802
1775
1807
1805
1791
1821
1780
1808
1793
1787
1800
1764
1806
1810
1817
1847
1826
1853
1841
1843
1862
1833
1856
1837
1885
1941
1968
2085
2042
1985
1933
1861
1854
1790
1765
1778
1743
1776
1759
1754
1771
1631
1587
1819
2545
3661
3511
2821
2198
1765
1623
1573
1613
1622
1634
1699
1694
1745
1747
1770
1820
1795
1841
1825
1825
1841
1795
1827
1796
1797
1810
1791
1825
1799
1821
1825
1789
1817
1795
1806
1841
1825
1867
1840
1845
1872
1844
1872
1842
1840
1898
1916
1982
2041
2064
2061
1969
1936
1871
1837
1829
1781
1792
1777
1791
1819
1781
1771
1607
1728
2191
3039
3499
2946
2398
2032
1727
1694
1662
1681
1727
1715
1769
1763
1798
1831
1823
1863
1840
1847
1851
1835
1860
1831
1833
1840
1814
1856
1835
1840
1840
1819
1851
1833
1840
1859
1838
1879
1872
1890
1911
1876
1897
1859
1867
1873
1872
1943
1953
2058
2085
2032
1991
1904
1859
1840
1776
1786
1745
1759
1782
1744
1792
1694
1578
1743
2250
3271
3538
2958
2358
1908
1665
1554
1570
1611
1623
1685
1680
1717
1746
1733
1793
1777
1803
1813
1789
1808
1773
1771
1776
1744
1775
1749
1765
1789
1767
1797
1770
1778
1792
1785
1819
1790
1797
1814
1794
1837
1808
1828
1827
1795
1885
1894
1967
2041
2003
1968
1873
1845
1806
1743
1758
1718
1732
1753
1740
1782
1754
1661
1593
1834
2646
3906
3802
2923
2230
1776
1556
1535
1589
1599
1665
1680
1726
1757
1750
1809
1809
1837
1841
1831
1857
1827
1836
1827
1795
1820
1791
1810
1811
1788
1830
1787
1802
1808
1791
1829
1806
1840
1855
1855
1893
1861
1871
1872
1838
1915
1922
1988
2094
2065
2026
1923
1904
1881
1808
1802
1753
1776
1787
1786
1808
1788
1727
1603
1725
2342
3574
4093
3291
2455
1905
1584
1527
1557
1581
1647
1662
1707
1739
1758
1815
1782
1830
1838
1827
1862
1827
1840
1831
1810
1827
1791
1805
1808
1782
1808
1782
1783
1779
1765
1801
1785
1823
1838
1824
1857
1830
1850
1840
1826
1885
1904
1954
2043
2034
2029
1913
1875
1841
1777
1771
1734
1753
1745
1744
1787
1755
1743
1581
1647
2167
3275
4095
3495
2611
2009
1611
1533
1535
1562
1638
1646
1686
1711
1728
1771
1751
1819
1819
1819
1857
1817
1828
1809
1785
1821
1781
1808
1806
1798
1825
1787
1808
1803
1787
1821
1791
1813
1826
1825
1855
1823
1840
1837
1823
1863
1876
1936
1994
2061
2045
1957
1917
1875
1822
1802
1742
1758
1751
1741
1779
1757
1773
1650
1575
1870
2617
3857
3843
2970
2316
1775
1584
1555
1575
1628
1634
1691
1702
1723
1769
1750
1787
1802
1805
1836
1811
1826
1811
1790
1808
1775
1804
1790
1786
1807
1776
1818
1808
1792
1835
1798
1834
1826
1840
1876
1846
1881
1859
1845
1869
1833
1904
1926
1978
2081
2026
1995
1919
1871
1850
1775
1782
1763
1764
1794
1755
1790
1759
1638
1608
1850
2667
3803
3707
2926
2250
1794
1567
1526
1584
1595
1662
1678
1703
1712
1730
1793
1810
1840
1873
1839
1863
1826
1808
1835
1797
1837
1808
1808
1820
1797
1821
1802
1787
1808
1790
1827
1808
1825
1856
1855
1888
1870
1857
1877
1833
1899
1922
1977
2061
2035
2032
1941
1873
1855
1801
1816
1769
1763
1782
1759
1792
1770
1727
1612
1722
2243
3152
3504
2975
2368
1991
1695
1616
1627
1623
1687
1698
1724
1787
1776
1831
1823
1840
1877
1856
1891
1858
1861
1862
1821
1847
1822
1833
1845
1813
1853
1829
1817
1821
1791
1827
1813
1841
1863
1836
1881
1867
1872
1873
1831
1853
1856
1901
1956
1978
2047
1999
1938
1895
1812
1810
1759
1744
1759
1738
1771
1743
1744
1717
1535
1699
2150
3150
3685
3046
2433
1939
1639
1579
1535
1614
1625
1661
1695
1691
1749
1739
1778
1809
1794
1834
1801
1808
1814
1784
1809
1771
1771
1791
1764
1792
1773
1790
1791
1767
1785
1761
1776
1806
1792
1830
1809
1825
1843
1825
1862
1825
1839
1907
1904
2000
2034
2026
1981
1879
1870
1798
1765
1744
1725
1749
1732
1747
1757
1725
1674
1567
1808
2554
3762
3791
2902
2243
1770
1534
1535
1535
1585
1641
1641
1706
1702
1734
1775
1770
1821
1810
1830
1847
1810
1840
1808
1808
1810
1790
1834
1789
1807
1806
1781
1808
1787
1799
1812
1808
1840
1822
1840
1863
1837
1866
1843
1857
1855
1875
1940
1943
2059
2078
2005
1968
1899
1860
1818
1778
1788
1760
1776
1776
1757
1788
1730
1622
1664
2047
3124
4048
3566
2691
2038
1676
1535
1561
1593
1611
1680
1679
1718
1735
1753
1807
1793
1821
1829
1811
1842
1796
1810
1808
1791
1821
1783
1798
1808
1777
1797
1772
1778
1777
1776
1818
1798
1830
1840
1824
1852
1830
1849
1850
1835
1866
1881
1936
1984
2037
2061
1970
1925
1882
1819
1798
1735
1745
1749
1743
1775
1732
1753
1682
1535
1707
2257
3456
3920
3193
2447
1865
1582
1509
1514
1589
1605
1651
1681
1696
1747
1735
1771
1793
1799
1840
1838
1842
1830
1808
1822
1776
1791
1779
1762
1804
1775
1779
1761
1750
1783
1758
1793
1793
1808
1841
1803
1826
1828
1808
1840
1806
1837
1885
1904
1981
2032
2061
1991
1905
1888
1823
1808
1783
1755
1791
1759
1791
1782
1763
1729
1589
1769
2288
3296
3696
3042
2416
1943
1650
1617
1611
1670
1687
1711
1767
1769
1824
1824
1840
1881
1870
1886
1872
1866
1887
1841
1863
1853
1841
1861
1835
1856
1829
1808
1838
1808
1840
1824
1816
1840
1833
1875
1859
1858
1870
1831
1855
1842
1846
1930
1923
2011
2082
2056
2018
1907
1890
1840
1788
1791
1746
1783
1773
1775
1803
1778
1716
1599
1776
2443
3609
3841
3056
2343
1858
1568
1535
1562
1584
1649
1655
1702
1712
1731
1776
1761
1808
1794
1799
1822
1790
1820
1798
1778
1806
1754
1791
1776
1770
1789
1738
1769
1744
1743
1771
1749
1795
1792
1791
1815
1786
1818
1799
1785
1799
1791
1867
1877
1972
2042
1965
1919
1835
1795
1792
1723
1733
1694
1697
1718
1691
1737
1693
1562
1585
1879
2799
3760
3475
2695
2058
1648
1473
1467
1520
1519
1584
1598
1634
1676
1674
1715
1706
1713
1748
1725
1753
1729
1724
1746
1709
1742
1710
1712
1719
1695
1712
1689
1680
1698
1677
1699
1696
1716
1742
1717
1754
1731
1744
1760
1735
1761
1794
1829
1882
1945
1957
1888
1829
1808
1754
1735
1690
1681
1698
1662
1702
1695
1689
1646
1487
1648
2158
3214
3653
3031
2370
1827
1535
1502
1488
1555
1568
1600
1641
1642
1683
1668
1713
1761
1758
1791
1760
1766
1779
1753
1767
1735
1739
1757
1727
1759
1727
1717
1722
1695
1744
1721
1742
1763
1750
1799
1787
1802
1819
1790
1809
1777
1845
1903
1918
2045
2003
1981
1914
1821
1814
1759
1739
1740
1722
1765
1737
1744
1762
1681
1584
1693
2173
3201
3657
3143
2421
1952
1659
1563
1599
1599
1648
1686
1683
1730
1718
1744
1774
1784
1824
1793
1814
1811
1779
1808
1773
1779
1795
1763
1801
1771
1783
1795
1776
1776
1753
1774
1787
1783
1835
1801
1824
1843
1819
1857
1825
1842
1887
1886
1978
2023
2028
1984
1903
1891
1820
1791
1777
1735
1776
1740
1747
1775
1754
1717
1571
1718
2286
3379
3846
3145
2432
1914
1613
1588
1559
1607
1646
1657
1715
1723
1747
1778
1778
1833
1820
1838
1856
1835
1859
1819
1825
1826
1789
1808
1791
1814
1811
1792
1835
1798
1797
1802
1795
1827
1806
1830
1837
1823
1874
1826
1839
1857
1894
1951
1989
2076
2055
1978
1934
1858
1856
1830
1778
1783
1769
1787
1792
1783
1824
1690
1618
1889
2559
3581
3376
2768
2255
1863
1713
1662
1680
1699
1702
1766
1759
1799
1827
1823
1875
1856
1890
1904
1874
1898
1872
1872
1857
1842
1861
1834
1856
1863
1848
1873
1847
1872
1863
1842
1885
1870
1911
1893
1874
1904
1865
1878
1879
1903
1961
1974
2096
2098
2035
1975
1891
1866
1818
1797
1801
1782
1820
1791
1776
1803
1727
1619
1787
2283
3239
3487
2939
2331
1922
1728
1606
1645
1648
1665
1725
1727
1787
1794
1809
1850
1814
1821
1845
1837
1862
1808
1814
1825
1787
1782
1769
1792
1776
1781
1785
1763
1776
1779
1809
1844
1844
1872
1869
1834
1874
1871
1910
1922
1940
1968
1986
2107
2101
2095
2038
1921
1894
1833
1808
1833
1789
1799
1807
1814
1843
1797
1706
1840
2302
3301
4010
3231
2471
1994
1746
1642
1667
1693
1730
1771
1745
1808
1808
1840
1887
1843
1881
1891
1898
1916
1858
1855
1808
1780
1801
1787
1811
1808
1811
1841
1821
1823
1808
1799
1810
1820
1845
1823
1827
1872
1839
1857
1839
1822
1891
1902
1984
2032
2007
1989
1899
1872
1805
1773
1762
1693
1712
1711
1712
1750
1721
1669
1535
1749
2399
3669
3861
2874
2163
1748
1493
1463
1456
1485
1535
1532
1590
1610
1616
1659
1666
1698
1686
1680
1709
1678
1683
1653
1649
1659
1641
1680
1669
1666
1697
1662
1681
1677
1669
1698
1685
1728
1714
1731
1759
1723
1733
1713
1718
1744
1779
1858
1906
1984
1948
1872
1846
1786
1737
1728
1665
1670
1659
1661
1691
1677
1702
1637
1514
1615
2221
3950
4095
3637
2498
1770
1499
1450
1471
1535
1555
1622
1639
1664
1697
1702
1759
1764
1789
1822
1796
1817
1793
1787
1798
1766
1779
1763
1781
1803
1783
1805
1770
1783
1808
1791
1825
1808
1829
1850
1831
1847
1835
1842
1861
1821
1851
1895
1929
2030
2069
2017
1940
1905
1886
1813
1808
1744
1727
1744
1725
1763
1734
1750
1681
1535
1744
2395
3780
4048
3094
2327
1782
1573
1535
1535
1619
1622
1648
1685
1677
1729
1716
1744
1777
1770
1817
1799
1808
1817
1785
1808
1770
1774
1790
1746
1783
1754
1769
1791
1762
1792
1787
1792
1812
1792
1822
1804
1821
1835
1826
1843
1830
1887
1929
1941
2064
2002
1966
1914
1854
1853
1791
1773
1776
1767
1798
1776
1791
1808
1717
1615
1664
2121
3241
4027
3437
2581
2028
1698
1611
1653
1662
1697
1718
1714
1776
1765
1801
1812
1790
1839
1815
1825
1827
1798
1819
1807
1801
1797
1776
1823
1797
1813
1819
1797
1825
1791
1814
1840
1819
1856
1823
1842
1858
1850
1889
1859
1870
1904
1951
2002
2079
2107
2069
1983
1933
1866
1855
1841
1806
1842
1811
1836
1831
1806
1815
1654
1693
2063
2867
3632
3173
2559
2128
1818
1735
1696
1726
1742
1751
1806
1813
1849
1866
1860
1884
1872
1907
1904
1872
1878
1854
1854
1845
1839
1858
1835
1857
1859
1823
1855
1824
1842
1825
1811
1847
1818
1857
1859
1841
1885
1840
1850
1838
1868
1935
1937
2032
2073
2038
2003
1922
1904
1866
1811
1825
1789
1814
1806
1807
1840
1747
1627
1773
2227
3120
3414
2875
2320
1989
1789
1668
1689
1690
1683
1736
1727
1775
1792
1807
1856
1850
1871
1851
1825
1841
1815
1825
1808
1786
1815
1776
1810
1815
1820
1845
1811
1824
1814
1819
1845
1827
1857
1840
1837
1872
1845
1855
1842
1872
1936
1935
2015
2047
2027
1998
1882
1885
1840
1786
1799
1765
1785
1777
1763
1780
1709
1595
1741
2189
3071
3355
2806
2243
1901
1696
1611
1625
1640
1646
1692
1693
1741
1750
1759
1793
1781
1829
1823
1808
1840
1808
1808
1782
1778
1805
1774
1807
1798
1779
1803
1763
1796
1787
1789
1822
1787
1818
1804
1802
1846
1826
1841
1852
1881
1922
1968
2018
1997
1940
1903
1814
1794
1761
1728
1730
1703
1744
1730
1731
1758
1616
1646
1962
2707
3641
3132
2514
2042
1729
1620
1589
1621
1622
1636
1697
1680
1714
1727
1744
1791
1776
1808
1801
1803
1808
1763
1792
1770
1758
1774
1744
1774
1764
1759
1781
1763
1796
1777
1770
1795
1770
1805
1805
1808
1840
1808
1876
1893
1931
2045
2007
1984
1918
1869
1865
1790
1793
1756
1731
1759
1735
1771
1755
1728
1633
1616
2035
3092
4095
3743
2688
2054
1653
1535
1571
1581
1641
1661
1702
1744
1739
1795
1791
1808
1845
1834
1858
1831
1840
1851
1808
1818
1792
1792
1810
1792
1819
1808
1800
1822
1793
1827
1812
1814
1840
1830
1858
1853
1846
1873
1904
1951
2017
2096
2073
1979
1950
1890
1856
1826
1763
1779
1744
1743
1769
1756
1779
1679
1535
1746
2445
4095
4095
3313
2406
1811
1588
1522
1558
1609
1619
1683
1697
1713
1754
1749
1802
1813
1826
1851
1831
1859
1839
1839
1831
1808
1829
1800
1805
1827
1793
1821
1801
1808
1822
1793
1840
1815
1835
1853
1838
1859
1840
1903
1949
1975
2103
2059
2005
1958
1895
1890
1814
1776
1767
1734
1766
1744
1762
1782
1697
1559
1648
2256
3741
4095
3530
2507
1886
1584
1493
1535
1554
1600
1635
1655
1712
1713
1750
1778
1783
1841
1818
1821
1838
1799
1818
1788
1802
1816
1780
1826
1805
1801
1812
1787
1811
1776
1802
1840
1830
1869
1840
1851
1865
1857
1929
1940
2011
2097
2056
2059
1967
1911
1892
1827
1841
1807
1806
1805
1771
1810
1795
1731
1615
1775
2357
3348
3615
2932
2335
1970
1699
1661
1685
1690
1740
1734
1776
1822
1819
1867
1829
1881
1904
1861
1889
1855
1862
1863
1841
1850
1823
1840
1840
1811
1853
1826
1839
1840
1823
1853
1840
1872
1893
1876
1903
1865
1887
1933
1934
2000
2047
2086
2046
1957
1923
1855
1827
1797
1763
1792
1773
1782
1793
1776
1735
1563
1747
2272
3234
3568
2882
2315
1941
1665
1622
1596
1642
1662
1663
1714
1712
1746
1767
1764
1794
1783
1808
1793
1740
1776
1751
1755
1747
1712
1744
1723
1751
1752
1741
1789
1754
1770
1776
1757
1793
1775
1797
1794
1786
1822
1799
1859
1872
1904
2021
1984
1967
1903
1836
1819
1737
1733
1717
1706
1739
1721
1730
1744
1681
1581
1665
2189
3279
3739
3035
2326
1885
1614
1525
1571
1573
1632
1654
1671
1714
1701
1744
1771
1785
1812
1794
1810
1806
1778
1799
1764
1787
1779
1755
1791
1766
1792
1779
1775
1808
1775
1792
1794
1793
1830
1808
1835
1827
1812
1855
1839
1924
1941
2015
2098
2023
1975
1910
1856
1846
1776
1779
1776
1765
1797
1773
1802
1773
1665
1616
1855
2690
4095
3978
2986
2238
1786
1583
1535
1606
1610
1655
1680
1694
1741
1731
1776
1790
1795
1847
1825
1854
1841
1826
1841
1808
1811
1792
1783
1808
1792
1792
1776
1771
1800
1785
1808
1795
1787
1825
1804
1832
1817
1799
1821
1798
1835
1840
1879
1933
1997
2035
1983
1904
1877
1815
1805
1749
1722
1739
1715
1746
1744
1744
1732
1599
1601
1919
2818
4082
3679
2769
2107
1664
1535
1514
1569
1579
1607
1664
1671
1743
1750
1776
1815
1808
1840
1836
1827
1830
1802
1815
1797
1775
1788
1771
1783
1775
1754
1778
1751
1786
1782
1793
1825
1806
1835
1825
1830
1865
1829
1840
1821
1814
1838
1859
1913
1961
2063
2037
1959
1936
1882
1830
1812
1761
1787
1776
1781
1815
1793
1815
1747
1618
1763
2247
3381
3845
3166
2448
1932
1667
1586
1606
1649
1669
1728
1755
1773
1823
1831
1880
1878
1874
1918
1886
1906
1888
1872
1877
1842
1860
1831
1828
1840
1826
1829
1840
1811
1811
1808
1822
1821
1830
1841
1840
1842
1843
1841
1865
1847
1863
1885
1902
1957
2053
2085
2035
1936
1877
1839
1817
1781
1760
1790
1776
1790
1787
1771
1734
1611
1806
2311
3239
3435
2832
2299
1961
1723
1659
1659
1709
1727
1730
1765
1776
1803
1823
1833
1869
1868
1877
1867
1857
1858
1840
1814
1811
1798
1806
1797
1808
1804
1778
1783
1773
1776
1795
1790
1794
1794
1809
1809
1834
1840
1808
1813
1808
1823
1872
1895
1980
2032
2011
1968
1885
1837
1802
1767
1763
1729
1741
1745
1755
1764
1745
1641
1619
1931
2736
3757
3434
2655
2036
1626
1441
1445
1459
1488
1535
1573
1618
1643
1677
1709
1712
1735
1747
1750
1776
1765
1772
1763
1757
1749
1744
1773
1765
1759
1773
1758
1773
1767
1758
1769
1764
1776
1781
1785
1802
1799
1808
1806
1798
1808
1842
1897
1938
2022
2007
1936
1885
1829
1785
1759
1722
1733
1725
1726
1746
1741
1753
1683
1583
1725
2295
3580
4048
3195
2409
1873
1626
1587
1616
1659
1685
1728
1770
1776
1804
1819
1860
1870
1888
1899
1887
1897
1904
1891
1873
1872
1857
1858
1856
1854
1842
1858
1837
1823
1840
1840
1872
1873
1861
1872
1875
1872
1877
1870
1869
1853
1870
1930
1968
2066
2122
2096
2014
1952
1913
1846
1835
1808
1790
1781
1776
1805
1791
1776
1691
1616
1854
2559
3781
3792
2922
2271
1799
1600
1577
1582
1627
1654
1677
1698
1721
1747
1786
1809
1810
1826
1846
1843
1858
1849
1821
1808
1802
1803
1791
1783
1799
1783
1783
1803
1782
1791
1785
