ecg_value
1827
1827
1827
1827
1827
1827
1827
1827
1827
1827
1827
1827
1827
1827
1827
1827
1827
1827
1827
1827
1827
1827
1827
1827
1827
1827
1827
1827
1827
1827
1827
1827
1827
1827
1827
1827
1827
1827
1827
1827
1827
1827
1827
1827
1827
1827
1827
1827
1827
1827
1827
1827
1827
1827
1827
1827
1827
1827
1827
1827
1827
1827
1827
1827
1827
1827
1827
1827
1827
1827
1827
1827
1827
1827
1827
1827
1827
1827
1827
1827
1827
1827
1827
1827
1827
1827
1827
1827
1827
1827
1827
1827
1827
1827
1827
1827
1827
1827
1827
1827
1827
1827
1827
1827
1827
1827
1827
1827
1827
1827
1827
1827
1827
1827
1827
1827
1827
1827
1827
1827
1827
1827
1827
1827
1827
1827
1827
1827
1827
1827
1827
1827
1827
1827
1935
1955
1954
1968
2017
1943
1911
1850
1779
1843
1914
1963
1979
1954
1994
1995
2047
2113
2131
2176
2144
2005
1919
1865
1743
1616
1576
1573
1567
1631
1679
1719
1707
1671
1698
1702
1670
1757
2114
3071
4095
3759
2810
2027
1609
1434
1461
1503
1584
1647
1677
1738
1744
1774
1815
1812
1873
1901
1919
1967
1923
1968
1980
2018
2096
2087
2165
2224
2224
2183
2055
1950
1847
1761
1744
1687
1654
1633
1627
1678
1697
1741
1776
1803
1851
1862
1856
1838
1841
1855
1842
1909
1863
1835
1873
1831
1835
1815
1810
1839
1827
1865
1854
1847
1839
1798
1808
1808
1827
1840
1811
1842
1865
1846
1863
1882
1902
1925
1967
2033
1968
1889
1799
1744
1751
1697
1710
1713
1711
1729
1646
1625
1642
1639
1663
1678
1811
2176
3173
4087
3549
2743
2114
1755
1658
1646
1697
1733
1808
1878
1895
1914
1887
1833
1839
1821
1849
1815
1813
1843
1830
1885
1893
1903
1950
1954
1984
1993
1953
1906
1792
1723
1668
1649
1650
1587
1616
1583
1572
1577
1584
1635
1649
1663
1687
1651
1694
1703
1716
1744
1735
1761
1742
1738
1755
1770
1825
1847
1831
1837
1810
1835
1810
1840
1888
1911
1972
2009
2064
2063
1968
1990
2007
1953
1906
1855
1827
1799
1776
1807
1792
1792
1765
1763
1777
1773
1857
2263
3187
3765
3382
2653
2041
1665
1530
1492
1555
1535
1566
1617
1616
1641
1667
1691
1706
1707
1759
1771
1783
1840
1857
1909
1936
1987
2030
2029
2081
2013
1924
1840
1728
1667
1594
1559
1535
1530
1579
1599
1611
1615
1645
1696
1673
1669
1700
1689
1748
1744
1755
1749
1734
1779
1794
1790
1791
1794
1847
1809
1790
1807
1777
1801
1795
1831
1870
1851
1911
1975
1969
1921
1798
1750
1722
1735
1746
1742
1744
1734
1738
1725
1712
1746
1745
1753
1759
1742
2009
2721
3492
3383
2942
2320
1872
1647
1610
1622
1667
1679
1695
1731
1730
1744
1746
1785
1839
1810
1857
1899
1923
1935
1931
1981
1983
2010
2095
2134
2149
2063
1984
1894
1766
1743
1687
1658
1679
1661
1660
1642
1680
1717
1728
1743
1707
1737
1775
1776
1791
1767
1805
1843
1782
1794
1813
1815
1824
1812
1818
1797
1810
1872
1887
1904
1918
1967
1999
2003
2074
2022
1954
1891
1840
1808
1776
1799
1814
1829
1856
1850
1851
1840
1814
1829
1794
1757
1821
2138
3024
3615
3359
2757
2143
1808
1570
1472
1473
1462
1491
1487
1535
1623
1638
1691
1687
1709
1755
1760
1799
1797
1855
1912
1908
1967
2001
2054
2055
2002
1987
1872
1789
1733
1674
1681
1668
1680
1712
1734
1774
1803
1826
1859
1871
1912
1904
1915
1914
1904
1919
1872
1862
1859
1808
1782
1765
1782
1781
1751
1759
1761
1749
1739
1714
1767
1775
1783
1831
1913
1920
1873
1793
1717
1674
1690
1683
1713
1722
1723
1754
1783
1776
1776
1790
1840
1783
1808
2041
2773
3769
3655
2928
2251
1824
1642
1562
1575
1620
1661
1714
1749
1747
1763
1754
1745
1745
1778
1831
1847
1915
1935
1963
1983
1995
2030
2042
2090
2099
2073
2000
1879
1807
1749
1678
1664
1691
1715
1750
1767
1779
1775
1775
1795
1779
1801
1772
1761
1771
1789
1825
1815
1781
1804
1808
1814
1822
1831
1829
1823
1831
1828
1821
1808
1811
1841
1859
1909
1968
1963
1901
1827
1798
1749
1738
1771
1777
1783
1775
1779
1818
1806
1797
1789
1787
1783
1775
1933
2528
3552
3847
3337
2559
2026
1661
1559
1535
1602
1651
1669
1690
1699
1715
1744
1765
1807
1793
1809
1839
1866
1904
1936
1970
2005
2015
2061
2070
2112
2098
2005
1907
1823
1754
1690
1642
1664
1651
1681
1699
1709
1722
1695
1706
1720
1728
1775
1761
1796
1783
1767
1779
1737
1772
1795
1807
1807
1789
1797
1803
1791
1829
1811
1780
1767
1776
1838
1876
1906
1927
1938
2014
1953
1889
1814
1754
1763
1773
1775
1771
1745
1761
1759
1783
1777
1772
1777
1772
1793
1925
2417
3376
3519
3185
2555
1986
1712
1599
1601
1618
1620
1663
1671
1712
1718
1737
1776
1773
1773
1758
1773
1840
1856
1902
1931
1933
1982
2015
2096
2096
2059
2028
1923
1843
1761
1681
1679
1646
1679
1682
1679
1729
1715
1725
1728
1744
1790
1791
1804
1815
1827
1851
1812
1823
1808
1777
1809
1801
1823
1850
1854
1851
1830
1836
1834
1842
1896
1929
2001
2064
1995
1942
1845
1817
1783
1783
1801
1776
1796
1808
1799
1797
1781
1826
1837
1831
1808
1841
2215
3135
3792
3519
2779
2161
1776
1609
1617
1597
1664
1682
1695
1735
1737
1778
1838
1850
1855
1831
1862
1879
1904
1941
1943
1993
2057
2059
2096
2109
2131
2058
1969
1901
1808
1771
1719
1681
1680
1677
1712
1702
1716
1764
1744
1778
1795
1801
1818
1790
1819
1798
1797
1814
1802
1822
1823
1787
1805
1781
1814
1826
1805
1811
1826
1887
1904
1927
1974
1982
1964
1879
1807
1778
1745
1747
1749
1777
1793
1746
1768
1775
1786
1815
1791
1823
1790
1882
2421
3467
3919
3354
2585
2027
1685
1609
1569
1571
1627
1644
1711
1718
1727
1770
1767
1803
1820
1829
1842
1818
1863
1877
1921
1966
1979
2039
2087
2107
2099
2000
1926
1813
1741
1703
1671
1689
1666
1661
1664
1664
1697
1694
1718
1744
1732
1775
1761
1757
1773
1747
1785
1767
1764
1791
1776
1806
1779
1774
1795
1776
1790
1782
1782
1834
1856
1919
1921
1965
1941
1855
1801
1729
1712
1729
1728
1759
1749
1786
1782
1732
1764
1765
1777
1789
1742
1845
2312
3310
3749
3337
2647
2047
1701
1577
1520
1559
1584
1598
1646
1653
1718
1729
1739
1767
1754
1774
1776
1803
1855
1871
1938
1941
1936
1982
2032
2080
2047
1984
1907
1808
1734
1680
1639
1626
1635
1673
1674
1658
1681
1677
1712
1728
1731
1749
1727
1766
1762
1742
1742
1715
1754
1761
1759
1757
1728
1755
1776
1806
1846
1808
1818
1863
1872
1936
1925
1883
1778
1738
1734
1677
1694
1684
1718
1728
1723
1761
1754
1744
1755
1712
1711
1739
2071
2898
3504
3231
2759
2137
1746
1575
1567
1535
1597
1616
1606
1649
1665
1709
1754
1737
1762
1773
1795
1779
1814
1886
1889
1904
1936
1990
2030
2073
2085
2062
1962
1901
1803
1745
1711
1673
1689
1666
1678
1697
1693
1745
1744
1749
1777
1781
1807
1781
1787
1825
1827
1870
1854
1835
1841
1817
1845
1845
1872
1883
1879
1955
2001
1998
1923
1823
1799
1769
1789
1785
1747
1794
1789
1791
1814
1799
1808
1792
1791
1794
1766
1923
2523
3687
3931
3163
2431
1936
1686
1615
1578
1610
1616
1646
1665
1680
1734
1769
1782
1795
1791
1822
1806
1826
1871
1881
1931
1919
1978
2032
2047
2131
2079
2010
1936
1847
1808
1734
1723
1712
1686
1712
1729
1769
1769
1753
1776
1764
1792
1789
1768
1798
1785
1806
1795
1763
1790
1769
1797
1815
1802
1819
1804
1821
1863
1872
1926
1933
2000
2019
1947
1883
1795
1767
1807
1813
1821
1797
1814
1798
1791
1840
1835
1831
1862
1807
1822
2009
2763
3977
4041
3197
2405
1943
1734
1621
1629
1637
1691
1730
1747
1796
1765
1813
1841
1851
1858
1840
1888
1914
1909
1968
1966
1994
2032
2054
2097
2117
2097
2016
1914
1840
1761
1727
1729
1702
1695
1671
1691
1707
1701
1744
1739
1790
1783
1755
1785
1773
1778
1805
1808
1825
1794
1798
1802
1800
1856
1792
1779
1789
1808
1867
1834
1873
1922
1974
1987
1877
1811
1762
1749
1801
1750
1733
1728
1734
1753
1729
1763
1803
1779
1785
1739
1744
1907
2597
3773
3919
3216
2416
1891
1646
1560
1524
1535
1587
1648
1643
1673
1712
1712
1771
1775
1789
1804
1818
1861
1840
1876
1899
1898
1970
1995
2045
2069
2016
1991
1856
1802
1758
1687
1695
1659
1685
1695
1690
1703
1706
1733
1749
1714
1749
1759
1792
1780
1751
1777
1774
1791
1766
1743
1783
1775
1791
1761
1744
1771
1779
1778
1782
1797
1854
1887
1979
2020
1963
1904
1819
1781
1743
1727
1757
1724
1744
1740
1757
1808
1773
1772
1777
1787
1766
1744
2009
2785
3563
3494
2974
2304
1845
1648
1607
1575
1609
1623
1630
1660
1669
1713
1744
1761
1816
1807
1833
1835
1845
1851
1834
1920
1927
1949
2005
2036
2071
2023
1946
1891
1766
1709
1658
1651
1677
1648
1667
1667
1673
1703
1707
1728
1743
1727
1747
1734
1773
1795
1788
1772
1758
1771
1781
1781
1805
1755
1767
1783
1774
1823
1840
1898
1929
1978
2037
1951
1877
1798
1771
1790
1749
1785
1820
1782
1791
1776
1806
1807
1790
1804
1783
1771
1815
2137
2996
3610
3393
2801
2157
1825
1623
1610
1609
1627
1688
1705
1735
1712
1710
1741
1747
1795
1803
1809
1855
1843
1874
1894
1926
1984
1997
2064
2081
2068
2047
1966
1883
1803
1753
1744
1721
1731
1733
1730
1754
1716
1763
1773
1776
1818
1802
1811
1823
1821
1846
1835
1855
1825
1807
1840
1828
1839
1833
1824
1853
1857
1891
1920
1960
2004
2022
2000
1913
1856
1846
1793
1776
1792
1794
1806
1799
1841
1819
1808
1834
1814
1841
1811
1834
2215
3094
3826
3546
2831
2234
1817
1661
1614
1627
1662
1678
1707
1712
1728
1776
1773
1786
1787
1829
1870
1836
1869
1877
1911
1975
1989
2033
2037
2085
2107
2007
1923
1834
1776
1743
1690
1685
1665
1663
1699
1679
1706
1713
1737
1774
1760
1774
1743
1739
1776
1777
1794
1771
1793
1839
1808
1780
1778
1783
1794
1799
1869
1870
1904
1936
1967
1951
1885
1792
1745
1717
1745
1734
1718
1733
1738
1792
1762
1761
1792
1776
1771
1717
1721
1946
2622
3600
3527
3035
2368
1879
1654
1582
1571
1619
1630
1682
1695
1717
1758
1767
1809
1797
1838
1887
1879
1904
1913
1922
1959
1957
2015
2022
2069
2099
2021
1989
1863
1775
1726
1670
1678
1671
1685
1675
1662
1706
1686
1706
1719
1715
1745
1746
1783
1793
1778
1803
1790
1808
1828
1776
1803
1803
1803
1806
1807
1876
1879
1907
1966
1998
1985
1903
1840
1820
1769
1808
1777
1765
1771
1773
1834
1815
1795
1821
1825
1873
1805
1824
2133
2973
3838
3599
2864
2239
1817
1633
1570
1587
1632
1653
1729
1738
1786
1830
1818
1839
1831
1846
1879
1889
1915
1921
1949
1983
2001
2035
2047
2105
2112
2033
1943
1825
1763
1742
1681
1680
1661
1662
1694
1685
1737
1729
1740
1776
1774
1809
1790
1791
1820
1780
1778
1772
1791
1808
1782
1805
1783
1823
1843
1840
1854
1885
1921
1982
1925
1887
1789
1760
1759
1758
1776
1739
1727
1751
1731
1772
1756
1776
1813
1805
1782
1779
2011
2838
3766
3745
2997
2274
1846
1619
1596
1574
1603
1635
1658
1737
1742
1756
1797
1777
1791
1776
1827
1866
1868
1887
1909
1943
1977
2003
2064
2064
2075
2047
1922
1844
1776
1731
1707
1664
1678
1647
1651
1695
1683
1710
1680
1702
1725
1723
1736
1714
1728
1755
1744
1745
1713
1735
1751
1744
1751
1716
1759
1794
1786
1805
1830
1904
1955
1877
1841
1776
1764
1744
1685
1721
1729
1727
1721
1708
1731
1743
1785
1789
1765
1765
1779
2110
2983
3575
3408
2743
2116
1739
1579
1567
1533
1584
1606
1616
1681
1691
1711
1721
1729
1775
1760
1783
1788
1789
1853
1873
1914
1959
1982
2015
2011
2022
1983
1885
1831
1743
1696
1681
1649
1678
1661
1696
1724
1694
1728
1715
1722
1771
1768
1782
1767
1786
1794
1802
1835
1808
1823
1822
1822
1827
1805
1814
1831
1829
1866
1872
1933
1971
2003
2018
1922
1839
1789
1762
1792
1758
1791
1808
1782
1807
1801
1807
1818
1811
1839
1792
1808
1940
2487
3559
3792
3283
2533
2005
1750
1609
1616
1619
1643
1695
1671
1695
1744
1761
1799
1797
1808
1819
1836
1889
1888
1909
1929
1931
2007
2015
2071
2095
2058
2001
1903
1829
1773
1719
1707
1674
1682
1694
1702
1726
1695
1725
1748
1771
1796
1785
1808
1799
1779
1820
1791
1806
1815
1808
1827
1822
1830
1821
1798
1830
1818
1814
1826
1845
1887
1881
1945
2011
1999
1955
1847
1799
1789
1767
1808
1765
1778
1774
1792
1817
1786
1808
1809
1792
1825
1780
1846
2176
3106
4015
3711
2873
2198
1795
1629
1564
1582
1600
1616
1674
1696
1738
1753
1747
1802
1797
1841
1849
1841
1890
1895
1929
1951
1952
2032
2039
2082
2060
1982
1907
1804
1748
1682
1648
1670
1658
1661
1659
1667
1682
1671
1743
1744
1727
1761
1787
1810
1785
1744
1775
1759
1776
1779
1763
1776
1755
1791
1782
1751
1782
1777
1795
1783
1787
1827
1817
1872
1934
1943
2002
1955
1904
1837
1763
1776
1754
1763
1750
1763
1792
1776
1773
1760
1771
1799
1777
1795
1776
1923
2549
3547
3797
3316
2525
2031
1685
1579
1554
1573
1613
1635
1681
1703
1725
1774
1755
1761
1765
1792
1840
1818
1866
1904
1919
1957
1933
1982
2010
2030
2030
1933
1857
1775
1709
1693
1660
1666
1648
1648
1680
1666
1705
1712
1698
1744
1741
1757
1744
1738
1785
1760
1787
1775
1767
1813
1795
1806
1783
1782
1806
1780
1792
1791
1805
1834
1786
1805
1802
1813
1856
1841
1920
1963
1989
2007
1905
1859
1803
1799
1814
1780
1802
1808
1805
1803
1787
1831
1837
1825
1835
1829
1831
1921
2386
3341
3519
3222
2608
2061
1783
1651
1655
1651
1662
1694
1672
1714
1716
1745
1774
1778
1803
1829
1839
1859
1840
1905
1911
1921
1994
2012
2035
2064
2055
2023
1918
1869
1789
1749
1738
1708
1703
1679
1695
1727
1744
1802
1778
1769
1808
1788
1804
1789
1794
1835
1826
1835
1814
1822
1851
1821
1863
1841
1827
1829
1829
1833
1831
1851
1863
1839
1856
1851
1869
1897
1890
1955
1988
2031
2023
1929
1887
1834
1770
1779
1758
1789
1806
1791
1827
1826
1853
1841
1829
1843
1831
1825
1904
2284
3279
3963
3623
2809
2166
1816
1639
1639
1648
1664
1695
1679
1712
1744
1755
1810
1795
1838
1830
1853
1881
1845
1905
1919
1947
2001
1999
2058
2071
2096
2033
1918
1866
1777
1715
1714
1702
1712
1707
1698
1715
1715
1755
1751
1759
1794
1765
1776
1783
1783
1813
1774
1799
1803
1802
1795
1781
1808
1797
1803
1836
1811
1817
1811
1808
1819
1826
1825
1817
1828
1871
1884
1937
1965
1984
2029
1947
1889
1786
1764
1782
1760
1779
1776
1769
1778
1774
1799
1777
1770
1795
1776
1793
1833
2108
3014
4095
3958
2960
2250
1839
1584
1535
1535
1574
1629
1630
1690
1681
1715
1744
1749
1794
1792
1791
1811
1826
1873
1888
1934
1977
2000
2043
2093
2103
2055
1948
1893
1802
1744
1707
1690
1678
1665
1680
1690
1689
1707
1721
1739
1770
1749
1787
1777
1778
1776
1758
1789
1776
1793
1809
1808
1829
1792
1791
1825
1778
1801
1781
1799
1803
1773
1813
1794
1842
1887
1897
1947
1998
1990
1922
1837
1808
1734
1733
1744
1741
1786
1769
1785
1776
1730
1766
1775
1776
1774
1729
1858
2305
3335
3939
3489
2650
2021
1706
1566
1535
1600
1595
1601
1639
1658
1713
1712
1709
1749
1778
1808
1783
1793
1849
1851
1859
1867
1939
2000
2017
2059
2003
1981
1881
1762
1705
1675
1678
1648
1593
1631
1639
1648
1654
1651
1698
1703
1709
1719
1723
1777
1756
1778
1791
1719
1755
1744
1762
1785
1776
1774
1748
1776
1776
1758
1792
1786
1776
1805
1851
1902
1926
1983
2025
1929
1861
1776
1766
1746
1718
1750
1754
1751
1767
1774
1801
1771
1786
1801
1808
1778
1773
2045
2831
3525
3339
2859
2228
1863
1673
1647
1627
1628
1643
1661
1723
1727
1775
1793
1781
1802
1808
1825
1829
1840
1902
1926
1978
2030
2033
2096
2121
2163
2122
1999
1925
1827
1789
1776
1719
1715
1701
1724
1742
1732
1776
1776
1798
1819
1827
1840
1811
1835
1851
1832
1866
1868
1887
1859
1836
1879
1851
1833
1816
1806
1846
1877
1905
1943
1971
2037
1984
1921
1846
1756
1767
1757
1765
1776
1758
1789
1780
1781
1791
1776
1822
1811
1801
1770
1909
2559
3733
3970
3218
2429
1990
1710
1632
1604
1612
1674
1683
1741
1766
1748
1791
1783
1822
1845
1835
1862
1870
1901
1907
1933
2000
2034
2095
2128
2130
2129
2038
1969
1891
1831
1834
1746
1725
1690
1687
1723
1711
1730
1771
1741
1771
1762
1789
1766
1749
1773
1763
1818
1820
1789
1811
1798
1810
1815
1788
1779
1778
1815
1845
1860
1905
1923
1987
2023
1961
1875
1780
1776
1766
1773
1812
1788
1774
1779
1767
1786
1770
1808
1818
1795
1773
1822
2295
3255
3760
3478
2723
2131
1790
1653
1651
1673
1713
1713
1707
1742
1759
1802
1821
1830
1855
1857
1897
1890
1877
1909
1902
1936
1933
1952
2001
2015
1987
1904
1807
1745
1662
1602
1562
1535
1556
1521
1569
1578
1578
1629
1613
1648
1664
1654
1673
1665
1709
1739
1728
1731
1733
1765
1751
1733
1749
1744
1765
1773
1776
1795
1765
1795
1838
1850
1872
1895
1987
1968
1910
1815
1719
1735
1751
1762
1772
1747
1787
1808
1797
1808
1791
1802
1810
1776
1827
2031
2856
3767
3725
2995
2240
1847
1648
1535
1535
1535
1584
1598
1615
1666
1655
1677
1687
1685
1723
1728
1759
1793
1801
1855
1887
1936
1967
2000
2057
2034
2032
1968
1855
1792
1707
1689
1665
1671
1691
1674
1715
1733
1733
1755
1751
1790
1786
1777
1783
1757
1814
1835
1806
1801
1795
1826
1835
1826
1834
1798
1796
1806
1808
1839
1798
1808
1825
1869
1919
1918
1967
1977
1954
1908
1838
1815
1758
1733
1785
1793
1815
1792
1770
1779
1798
1818
1802
1798
1819
1792
1955
2544
3499
3632
3197
2530
1995
1714
1620
1599
1629
1631
1663
1712
1707
1740
1744
1723
1769
1763
1795
1795
1805
1859
1866
1904
1925
1966
2026
2038
2098
2064
1995
1936
1823
1770
1691
1650
1670
1683
1710
1706
1699
1697
1705
1753
1763
1760
1773
1731
1775
1790
1777
1789
1773
1780
1792
1795
1859
1826
1781
1754
1792
1834
1821
1840
1871
1901
1955
1964
1993
2003
1953
1907
1825
1819
1790
1782
1806
1798
1810
1819
1781
1773
1775
1824
1819
1821
1815
1803
1994
2640
3616
3607
3051
2397
1936
1691
1615
1604
1670
1674
1706
1717
1730
1783
1779
1783
1815
1814
1872
1855
1879
1905
1903
1955
1972
1995
2068
2097
2125
2065
1995
1927
1826
1787
1738
1699
1703
1685
1712
1731
1746
1777
1774
1813
1823
1827
1821
1797
1821
1817
1840
1839
1808
1846
1854
1851
1855
1822
1842
1811
1831
1869
1840
1857
1872
1904
1953
1978
2026
1964
1891
1836
1783
1819
1776
1774
1793
1775
1791
1787
1792
1807
1799
1834
1808
1774
1807
2037
2907
3915
3774
2942
2229
1862
1643
1587
1611
1591
1631
1654
1692
1745
1740
1787
1807
1819
1840
1826
1866
1872
1898
1927
1936
1989
2023
2091
2133
2110
2085
1989
1911
1825
1743
1714
1690
1690
1689
1668
1713
1707
1726
1746
1741
1776
1763
1779
1777
1747
1778
1765
1763
1791
1768
1808
1808
1801
1785
1766
1807
1807
1789
1795
1777
1815
1826
1840
1872
1867
1901
1904
1957
1932
1855
1837
1786
1782
1787
1780
1807
1776
1766
1752
1744
1779
1787
1807
1826
1778
1821
2001
2702
3790
3840
3184
2400
1951
1700
1614
1634
1614
1633
1670
1693
1759
1755
1744
1773
1759
1790
1779
1821
1846
1847
1883
1893
1919
1960
1982
2035
2032
2000
1939
1840
1795
1712
1685
1680
1653
1673
1659
1680
1703
1696
1722
1705
1712
1730
1723
1760
1723
1715
1739
1739
1776
1757
1762
1782
1781
1796
1779
1775
1791
1783
1799
1776
1810
1833
1842
1898
1902
1952
2001
1970
1936
1839
1787
1776
1744
1791
1778
1766
1747
1750
1791
1775
1783
1808
1776
1802
1758
1830
2261
3171
3494
3234
2627
2038
1711
1606
1555
1583
1609
1631
1691
1687
1713
1733
1718
1759
1763
1773
1780
1803
1853
1861
1898
1923
1922
1989
2031
2094
2097
1996
1919
1821
1760
1691
1652
1664
1646
1649
1646
1643
1693
1709
1729
1712
1715
1730
1709
1739
1754
1744
1759
1742
1762
1775
1767
1788
1761
1785
1777
1758
1793
1807
1856
1903
1934
1995
1938
1885
1798
1755
1760
1747
1766
1747
1723
1757
1749
1781
1797
1794
1823
1765
1767
1787
1955
2679
3551
3477
2997
2318
1929
1719
1631
1616
1622
1685
1683
1728
1744
1745
1776
1765
1807
1844
1840
1856
1857
1892
1893
1926
2009
2028
2063
2112
2107
2083
1975
1908
1840
1759
1730
1699
1718
1748
1764
1747
1728
1759
1770
1776
1817
1808
1833
1831
1834
1856
1821
1836
1803
1792
1840
1808
1836
1841
1837
1851
1835
1867
1900
1889
1936
1938
2017
2030
1961
1900
1837
1824
1805
1776
1834
1831
1850
1807
1803
1819
1808
1833
1838
1823
1838
1919
2343
3370
4095
3710
2747
2161
1808
1648
1625
1607
1661
1698
1711
1730
1733
1771
1806
1824
1873
1833
1858
1871
1893
1935
1926
1971
1991
2015
2098
2117
2131
2065
1966
1879
1774
1750
1706
1670
1691
1679
1710
1707
1726
1756
1755
1775
1767
1775
1802
1758
1789
1797
1778
1792
1789
1808
1792
1789
1808
1795
1808
1777
1795
1806
1782
1827
1863
1857
1895
1911
1999
1942
1870
1807
1751
1776
1758
1767
1798
1759
1776
1779
1763
1776
1771
1788
1786
1786
1810
1920
2510
3650
4095
3438
2533
2020
1670
1535
1559
1568
1630
1646
1658
1698
1701
1747
1776
1782
1809
1780
1825
1832
1843
1906
1899
1936
1971
1997
2043
2032
2032
1989
1914
1829
1717
1698
1667
1634
1646
1632
1662
1639
1651
1690
1707
1743
1750
1734
1730
1728
1763
1755
1755
1762
1762
1790
1759
1742
1759
1754
1766
1751
1746
1777
1758
1776
1792
1819
1887
1904
1961
1935
1872
1811
1735
1733
1721
1727
1758
1741
1761
1757
1761
1785
1762
1776
1776
1756
1749
1810
2292
3242
3685
3392
2642
2082
1714
1582
1574
1558
1599
1611
1609
1665
1661
1714
1730
1759
1780
1791
1811
1808
1825
1890
1865
1886
1914
1963
2038
2060
2091
2000
1913
1867
1751
1728
1682
1684
1708
1673
1699
1706
1713
1731
1743
1782
1773
1773
1813
1792
1808
1815
1791
1793
1791
1838
1812
1809
1835
1798
1810
1807
1815
1847
1819
1855
1861
1892
1962
1989
2034
1956
1874
1824
1785
1811
1802
1797
1817
1787
1835
1814
1803
1810
1784
1810
1799
1806
1840
2061
2917
3765
3551
2912
2237
1872
1669
1647
1639
1629
1686
1712
1721
1776
1767
1798
1805
1814
1841
1835
1872
1869
1919
1948
1961
2000
2010
2064
2105
2100
2086
1975
1901
1841
1750
1740
1719
1716
1734
1727
1747
1753
1764
1783
1789
1831
1810
1802
1813
1782
1830
1821
1815
1858
1841
1852
1817
1840
1863
1820
1851
1829
1832
1872
1862
1905
1904
1938
1984
2019
2000
1917
1840
1831
1805
1813
1794
1806
1834
1808
1829
1808
1815
1839
1831
1866
1813
1806
1983
2665
3873
4007
3177
2416
1919
1701
1612
1597
1637
1648
1683
1697
1742
1761
1757
1789
1789
1790
1822
1824
1875
1873
1909
1968
1971
2007
2014
2060
2083
2045
2001
1903
1814
1743
1686
1699
1664
1671
1697
1696
1719
1695
1716
1728
1730
1763
1761
1767
1778
1746
1783
1797
1823
1807
1789
1822
1805
1799
1802
1782
1815
1803
1807
1826
1832
1844
1819
1790
1771
1777
1810
1813
1868
1937
1888
1860
1770
1739
1703
1681
1749
1758
1749
1747
1755
1762
1744
1746
1767
1755
1757
1765
2033
2878
3721
3674
2919
2238
1821
1597
1535
1517
1553
1615
1621
1664
1647
1655
1686
1691
1741
1733
1755
1760
1755
1803
1831
1877
1907
1918
1986
2017
2043
2012
1893
1858
1763
1713
1679
1637
1658
1650
1651
1639
1622
1684
1691
1675
1675
1696
1750
1741
1743
1724
1707
1763
1735
1746
1767
1761
1808
1765
1770
1777
1744
1762
1770
1764
1774
1819
1874
1879
1936
1963
1943
1904
1816
1751
1734
1715
1739
1732
1751
1775
1769
1776
1740
1756
1776
1769
1796
1725
1814
2245
3136
3520
3211
2644
2093
1747
1635
1585
1622
1634
1629
1680
1671
1726
1744
1737
1786
1773
1782
1809
1817
1867
1860
1916
1941
1951
2016
2032
2064
2037
1998
1963
1867
1808
1755
1702
1734
1720
1712
1709
1712
1759
1751
1780
1794
1787
1798
1789
1815
1802
1782
1816
1808
1837
1831
1811
1840
1795
1797
1808
1793
1835
1824
1840
1874
1904
1939
1965
2033
2032
1943
1895
1826
1801
1792
1789
1818
1791
1819
1835
1805
1840
1825
1847
1838
1809
1833
1918
2442
3472
3728
3293
2526
2058
1791
1663
1649
1647
1697
1710
1732
1791
1808
1829
1840
1827
1854
1834
1862
1885
1868
1910
1911
1954
1981
2032
2109
2112
2123
2067
1943
1877
1788
1755
1749
1743
1753
1728
1754
1751
1771
1808
1767
1793
1819
1808
1840
1834
1857
1829
1810
1833
1808
1832
1815
1808
1821
1787
1807
1819
1805
1851
1869
1930
1965
1991
1991
1927
1861
1805
1777
1813
1769
1773
1755
1763
1792
1761
1777
1776
1781
1815
1777
1786
1913
2539
3821
4080
3265
2430
1909
1653
1524
1531
1535
1554
1616
1631
1681
1711
1745
1771
1741
1765
1760
1793
1845
1841
1872
1883
1895
1946
1936
2026
2034
2011
1976
1887
1830
1751
1726
1715
1670
1680
1697
1680
1715
1722
1755
1754
1735
1749
1739
1778
1779
1770
1808
1782
1801
1781
1769
1797
1776
1783
1789
1796
1811
1805
1843
1872
1899
1951
1947
1920
1845
1794
1774
1735
1770
1756
1741
1773
1751
1747
1746
1767
1791
1760
1789
1765
1800
2128
3024
3953
3701
2803
2166
1734
1587
1520
1504
1575
1575
1594
1616
1632
1702
1693
1733
1751
1770
1801
1805
1848
1851
1875
1907
1894
1939
1968
2011
2064
1984
1911
1835
1753
1739
1665
1648
1623
1639
1661
1654
1662
1652
1665
1699
1705
1729
1725
1729
1743
1728
1749
1738
1745
1740
1715
1747
1759
1755
1783
1771
1834
1843
1872
1935
1947
1908
1817
1759
1776
1729
1741
1718
1707
1749
1747
1764
1743
1757
1801
1771
1771
1739
1810
2210
3105
3638
3341
2670
2096
1735
1629
1574
1577
1631
1627
1679
1694
1712
1734
1741
1760
1764
1771
1782
1785
1819
1811
1841
1903
1917
2001
2016
2033
2085
2015
1921
1820
1771
1755
1698
1703
1683
1701
1727
1691
1712
1709
1739
1780
1765
1814
1803
1806
1839
1809
1828
1833
1813
1827
1802
1825
1807
1836
1882
1887
1955
1977
2003
1999
1898
1843
1799
1778
1795
1779
1811
1801
1810
1857
1809
1808
1801
1823
1853
1812
1840
2032
2736
3824
3668
3055
2347
1930
1751
1643
1643
1643
1680
1712
1710
1740
1753
1770
1790
1767
1802
1794
1795
1837
1847
1901
1891
1906
1949
1986
2083
2083
2055
2015
1918
1868
1787
1757
1753
1716
1747
1761
1775
1804
1785
1837
1826
1837
1859
1840
1841
1822
1831
1861
1851
1870
1876
1861
1866
1846
1873
1867
1883
1915
1923
1978
2010
1991
1951
1858
1853
1799
1797
1808
1779
1809
1817
1781
1827
1826
1854
1849
1847
1837
1790
2032
2832
3906
3878
3049
2349
1900
1677
1636
1623
1625
1627
1652
1690
1714
1770
1737
1746
1790
1770
1790
1795
1818
1845
1872
1930
1937
1970
2047
2064
2106
2034
1955
1881
1802
1760
1713
1696
1712
1703
1749
1751
1727
1725
1723
1751
1744
1774
1799
1762
1803
1794
1813
1823
1808
1827
1829
1823
1841
1821
1840
1851
1860
1901
1911
1994
1947
1879
1839
1767
1749
1744
1759
1771
1738
1776
1749
1741
1771
1762
1792
1792
1796
1789
1889
2485
3554
4032
3421
2544
2010
1689
1578
1577
1570
1600
1600
1619
1661
1687
1733
1738
1761
1764
1761
1802
1804
1826
1860
1872
1943
1947
1951
2019
2023
2036
1968
1895
1824
1757
1723
1669
1666
1696
1669
1707
1711
1721
1723
1712
1754
1734
1742
1746
1739
1778
1761
1767
1786
1763
1774
1739
1753
1760
1744
1776
1771
1808
1839
1856
1953
1985
1942
1857
1771
1745
1731
1756
1761
1740
1777
1760
1770
1776
1750
1783
1775
1786
1774
1774
2066
2848
3615
3443
2815
2183
1792
1632
1605
1599
1638
1619
1662
1698
1679
1731
1734
1769
1794
1746
1781
1791
1826
1844
1834
1875
1897
1943
1984
1984
2032
1997
1933
1877
1793
1776
1709
1713
1702
1695
1735
1712
1705
1744
1771
1803
1774
1757
1776
1779
1831
1814
1813
1802
1799
1842
1829
1798
1782
1771
1821
1819
1866
1904
1968
2030
2013
1936
1857
1783
1795
1755
1754
1770
1759
1782
1793
1806
1831
1811
1837
1818
1840
1813
1830
2176
3061
3910
3565
2771
2178
1807
1647
1599
1597
1648
1666
1729
1745
1713
1738
1729
1765
1807
1787
1826
1812
1839
1873
1887
1921
1927
1979
2038
2086
2118
2057
1986
1918
1816
1808
1760
1737
1729
1732
1755
1746
1778
1783
1782
1785
1806
1807
1808
1808
1811
1795
1808
1802
1803
1808
1808
1805
1798
1808
1823
1825
1854
1889
1939
1984
2007
1983
1899
1828
1799
1791
1803
1797
1793
1799
1799
1813
1817
1815
1815
1803
1834
1791
1811
2078
2914
4000
3918
3003
2299
1843
1622
1565
1559
1579
1591
1626
1679
1683
1709
1722
1741
1750
1771
1771
1735
1732
1719
1728
1772
1797
1857
1925
1971
2007
1970
1922
1831
1723
1672
1607
1577
1506
1466
1439
1397
1442
1462
1468
1498
1506
1554
1574
1614
1649
1648
1668
1676
1665
1677
1668
1671
1647
1636
1648
1653
1674
1723
1744
1777
1835
1866
1808
1730
1651
1631
1638
1649
1646
1654
1643
1659
1680
1677
1683
1690
1701
1710
1677
1744
2155
3174
3875
3503
2656
2032
1639
1477
1445
1463
1473
1509
1535
1574
1612
1622
1658
1680
1697
1717
1710
1727
1761
1765
1786
1824
1850
1888
1943
1986
1999
1962
1878
1783
1733
1691
1705
1680
1663
1663
1674
1686
1691
1712
1743
1735
1754
1747
1729
1747
1765
1781
1770
1757
1783
1783
1778
1773
1765
1780
1807
1811
1827
1836
1858
1873
1909
1958
1989
2007
1942
1863
1801
1766
1776
1791
1813
1795
1780
1822
1830
1818
1825
1837
1851
1840
1831
1979
2608
3649
3786
3386
2603
2079
1823
1739
1718
1760
1785
1839
1865
1919
1952
1927
1945
1979
1999
2016
2035
2064
2075
2082
2108
2149
2206
2237
2288
2322
2306
2283
2227
2165
2096
2079
2042
2015
2000
2002
2024
1998
1968
1951
1936
1964
1968
1968
1937
1903
1906
1903
1890
1888
1856
1863
1891
1887
1879
1862
1853
1881
1907
1941
1968
2002
2096
2065
1977
1860
1828
1809
1782
1813
1815
1822
1840
1826
1853
1859
1867
1877
1840
1843
1841
1991
2651
3600
3559
3087
2414
1974
1740
1668
1646
1653
1664
1658
1712
1727
1713
1729
1699
1731
1744
1786
1824
1832
1851
1856
1877
1922
1931
1989
2029
2035
2030
1967
1898
1827
1776
1751
1713
1715
1717
1699
1729
1743
1791
1819
1794
1796
1786
1803
1820
1792
1808
1806
1811
1808
1806
1802
1767
1809
1838
1831
1856
1876
1939
1979
2027
2026
1937
1867
1762
1719
1731
1732
1755
1728
1707
1729
1741
1757
1765
1799
1807
1776
1754
1869
2461
3570
3867
3357
2586
2081
1827
1712
1708
1719
1744
1767
1789
1834
1855
1856
1874
1874
1904
1910
1921
1949
1934
1951
1959
1964
2001
2011
2053
2062
2033
1985
1893
1834
1766
1743
1687
1665
1661
1664
1680
1711
1698
1707
1702
1723
1767
1743
1748
1754
1771
1778
1745
1747
1738
1724
1725
1703
1696
1699
1726
1749
1744
1773
1792
1830
1897
1857
1798
1728
1677
1679
1662
1680
1657
1665
1694
1673
1688
1691
1708
1734
1754
1736
1712
2001
2924
3770
3613
2826
2172
1783
1601
1569
1568
1573
1606
1628
1654
1680
1706
1733
1741
1756
1765
1758
1771
1760
1808
1840
1863
1893
1895
1949
1998
2012
2000
1927
1856
1793
1731
1713
1712
1717
1712
1703
1743
1738
1762
1792
1782
1799
1790
1806
1835
1885
1921
1902
1897
1872
1866
1882
1868
1862
1856
1855
1882
1904
1962
1961
1978
2032
2074
2055
1953
1883
1846
1819
1840
1827
1794
1798
1786
1806
1803
1808
1809
1795
1811
1781
1783
2040
2838
3866
3797
3006
2299
1845
1645
1565
1559
1593
1616
1639
1639
1641
1680
1718
1735
1753
1805
1838
1819
1825
1850
1871
1931
1949
1971
1993
2031
2031
1978
1924
1837
1773
1726
1679
1691
1680
1680
1680
1677
1680
1692
1723
1723
1702
1741
1752
1746
1767
1776
1776
1750
1743
1751
1758
1789
1759
1737
1777
1776
1809
1826
1859
1925
1958
1915
1841
1775
1757
1725
1725
1699
1699
1719
1693
1727
1738
1726
1759
1770
1758
1733
1765
2063
2894
3633
3391
2791
2158
1771
1630
1567
1535
1535
1590
1617
1651
1682
1721
1710
1702
1713
1738
1744
1728
1764
1776
1808
1862
1867
1914
1971
2011
2037
1984
1900
1799
1733
1701
1670
1663
1655
1668
1683
1690
1716
1743
1776
1773
1749
1765
1775
1771
1801
1792
1786
1804
1834
1819
1803
1822
1856
1849
1850
1861
1881
1920
1968
2024
2000
1935
1819
1767
1761
1763
1786
1791
1787
1790
1790
1779
1751
1783
1807
1808
1788
1776
1919
2526
3617
3783
3184
2437
1936
1663
1597
1584
1605
1642
1669
1712
1735
1745
1765
1793
1835
1805
1809
1824
1814
1844
1872
1902
1937
1967
2038
2047
2063
2074
1984
1902
1833
1763
1746
1713
1733
1727
1742
1744
1745
1777
1794
1805
1782
1792
1825
1815
1843
1856
1859
1889
1882
1877
1878
1846
1852
1866
1872
1868
1872
1933
1959
1968
2002
2033
2013
1921
1856
1818
1797
1791
1763
1771
1781
1774
1791
1779
1803
1833
1843
1831
1785
1872
2279
3285
4065
3633
2742
2135
1773
1659
1602
1590
1621
1631
1669
1699
1717
1729
1750
1763
1773
1777
1806
1814
1838
1851
1870
1913
1936
1995
2037
2047
2006
1939
1882
1799
1734
1709
1685
1702
1685
1671
1683
1673
1694
1714
1728
1754
1744
1771
1781
1791
1819
1788
1776
1767
1798
1813
1808
1807
1797
1803
1808
1805
1814
1809
1809
1856
1874
1909
1915
1981
1936
1849
1806
1770
1787
1799
1776
1807
1803
1785
1821
1824
1837
1836
1840
1865
1824
1838
2078
2914
3867
3818
3088
2362
1899
1683
1611
1617
1637
1662
1680
1680
1723
1751
1764
1786
1791
1813
1802
1833
1869
1862
1870
1874
1937
1991
1995
2033
2023
1996
1930
1846
1795
1734
1696
1669
1674
1693
1677
1663
1711
1701
1727
1741
1757
1758
1727
1786
1775
1765
1765
1773
1786
1751
1762
1798
1785
1794
1778
1784
1793
1771
1802
1825
1857
1882
1919
1987
1922
1847
1805
1745
1738
1727
1730
1755
1745
1758
1741
1759
1776
1757
1785
1763
1783
1770
1808
2223
3110
3489
3201
2624
2062
1744
1632
1631
1623
1648
1648
1667
1710
1713
1772
1769
1786
1831
1815
1840
1810
1823
1866
1873
1918
1926
1966
2032
2060
2047
1954
1895
1840
1756
1734
1703
1711
1714
1679
1731
1734
1744
1768
1759
1777
1770
1765
1771
1769
1789
1787
1798
1818
1814
1834
1799
1808
1829
1808
1839
1845
1858
1887
1904
1979
2005
2009
1949
1856
1840
1775
1755
1779
1767
1792
1790
1808
1831
1822
1846
1845
1835
1847
1843
1879
2097
2864
3759
3460
2901
2266
1893
1743
1671
1677
1664
1711
1729
1739
1793
1787
1815
1831
1819
1841
1850
1869
1887
1901
1935
1921
1965
2005
2043
2112
2093
2045
1991
1886
1836
1751
1742
1746
1723
1758
1755
1766
1763
1777
1808
1794
1793
1805
1792
1825
1802
1808
1813
1798
1826
1787
1808
1829
1808
1839
1814
1821
1828
1830
1889
1907
1927
1964
1999
1984
1910
1857
1811
1759
1785
1776
1776
1783
1783
1791
1769
1797
1812
1808
1853
1803
1796
1934
2474
3583
3888
3259
2484
1971
1738
1616
1603
1629
1631
1683
1700
1745
1750
1744
1776
1766
1785
1819
1806
1845
1843
1888
1909
1915
1951
1983
2047
2087
2027
1983
1863
1786
1741
1679
1680
1653
1677
1689
1703
1742
1725
1739
1751
1749
1798
1774
1792
1799
1791
1821
1791
1818
1811
1782
1808
1783
1810
1815
1782
1804
1803
1819
1830
1870
1918
1925
1978
1980
1920
1859
1766
1738
1751
1744
1771
1745
1770
1781
1781
1786
1769
1792
1797
1776
1770
1792
2065
2941
3889
3728
2889
2237
1827
1626
1611
1603
1621
1642
1653
1714
1726
1761
1786
1781
1823
1796
1798
1814
1808
1865
1887
1931
1967
1986
2037
2072
2065
2017
1902
1839
1759
1731
1702
1677
1686
1683
1674
1676
1670
1706
1698
1727
1749
1759
1778
1750
1778
1774
1761
1805
1775
1793
1798
1781
1800
1776
1786
1783
1762
1813
1849
1862
1881
1914
1959
1883
1808
1759
1744
1769
1712
1723
1734
1728
1738
1742
1754
1747
1751
1786
1741
1725
1773
2027
2810
3520
3393
2803
2126
1802
1606
1555
1561
1535
1619
1648
1684
1697
1710
1721
1712
1757
1773
1767
1803
1803
1833
1850
1863
1947
1938
2000
2054
2061
2033
1889
1806
1767
1712
1711
1699
1685
1698
1683
1712
1723
1739
1741
1733
1750
1744
1777
1776
1755
1791
1796
1809
1805
1783
1787
1761
1807
1809
1783
1835
1840
1872
1904
1921
1997
1937
1874
1809
1793
1773
1706
1749
1764
1739
1805
1799
1798
1802
1775
1786
1795
1819
1836
1968
2621
3645
3546
2957
2301
1904
1685
1648
1646
1638
1702
1679
1712
1728
1713
1741
1761
1774
1799
1776
1819
1807
1823
1872
1904
1957
1963
2016
2090
2107
2107
1987
1908
1846
1785
1759
1742
1749
1761
1740
1733
1718
1748
1765
1790
1809
1775
1777
1812
1823
1839
1817
1823
1817
1826
1831
1806
1863
1873
1869
1911
1913
1936
2001
1995
1953
1846
1823
1793
1775
1776
1776
1808
1783
1744
1789
1808
1827
1827
1814
1840
1794
1946
2503
3530
3728
3068
2412
1970
1707
1658
1616
1632
1631
1679
1735
1744
1789
1790
1789
1831
1803
1808
1833
1837
1862
1869
1918
1954
1968
2035
2042
2074
2023
1950
1911
1840
1787
1737
1715
1746
1716
1713
1712
1726
1787
1782
1798
1817
1808
1850
1783
1793
1794
1775
1811
1819
1835
1813
1794
1811
1793
1811
1812
1823
1891
1890
1943
2032
2000
1936
1822
1801
1787
1763
1776
1781
1794
1783
1775
1808
1782
1794
1808
1808
1838
1791
1936
2587
3662
3842
3110
2404
1950
1694
1635
1586
1616
1651
1661
1719
1719
1739
1747
1743
1763
1752
1763
1779
1796
1845
1870
1921
1915
1929
1997
2018
2043
2025
1967
1899
1787
1749
1712
1684
1679
1658
1682
1717
1714
1762
1730
1747
1757
1754
1784
1747
1771
1790
1776
1811
1793
1797
1794
1786
1830
1797
1792
1791
1829
1879
1856
1919
1979
1968
1954
1856
1787
1769
1786
1794
1778
1796
1776
1757
1782
1776
1808
1818
1792
1810
1753
1860
2303
3283
3915
3403
2637
2078
1721
1630
1600
1626
1655
1643
1679
1685
1737
1761
1762
1819
1809
1846
1851
1842
1870
1877
1921
1950
1955
2018
2078
2113
2094
2021
1968
1829
1767
1728
1701
1709
1702
1735
1744
1746
1775
1750
1774
1729
1722
1776
1772
1805
1814
1798
1819
1824
1840
1793
1762
1794
1803
1831
1840
1850
1895
1925
2009
2018
1932
1866
1791
1775
1771
1762
1795
1786
1813
1803
1763
1765
1748
1798
1799
1807
1791
1799
2213
3214
4042
3644
2733
2128
1770
1615
1597
1565
1588
1621
1667
1726
1719
1744
1753
1747
1762
1745
1759
1801
1813
1866
1881
1917
1925
1948
2003
2011
2037
1968
1867
1811
1744
1734
1697
1675
1675
1664
1701
1693
1692
1708
1697
1713
1714
1712
1769
1771
1767
1773
1753
1789
1776
1803
1779
1722
1745
1729
1786
1822
1840
1872
1902
1968
1942
1840
1795
1733
1745
1751
1711
1721
1712
1742
1738
1745
1765
1749
1758
1775
1740
1738
1926
2681
3632
3519
2951
2259
1856
1627
1535
1535
1565
1618
1638
1662
1703
1695
1731
1739
1717
1747
1737
1746
1784
1785
1826
1838
1877
1902
1945
2007
1989
1957
1883
1808
1766
1697
1663
1633
1635
1678
1648
1697
1697
1703
1728
1711
1755
1749
1743
1775
1754
1779
1774
1780
1783
1767
1777
1791
1797
1773
1775
1847
1867
1867
1915
1968
2012
1927
1817
1803
1776
1776
1786
1776
1788
1758
1779
1776
1783
1815
1781
1808
1809
1782
1895
2374
3483
3949
3259
2526
2007
1783
1691
1664
1703
1722
1731
1717
1703
1744
1753
1787
1835
1833
1840
1822
1850
1889
1882
1938
1923
1965
2000
2032
2110
2095
2038
1946
1846
1819
1773
1744
1728
1734
1769
1761
1775
1786
1808
1838
1814
1807
1803
1807
1835
1827
1846
1827
1831
1859
1808
1818
1810
1813
1875
1857
1877
1919
1963
1993
1957
1937
1879
1842
1814
1776
1783
1799
1793
1772
1747
1778
1806
1811
1841
1840
1807
1772
1920
2624
3740
3858
3055
2347
1963
1712
1678
1643
1643
1680
1670
1738
1735
1744
1791
1746
1811
1789
1805
1840
1821
1863
1876
1872
1927
1936
2025
2097
2081
2069
2000
1903
1779
1742
1730
1684
1682
1682
1697
1742
1692
1730
1713
1722
1751
1730
1757
1776
1767
1833
1787
1760
1758
1789
1810
1787
1823
1796
1749
1838
1819
1880
1932
1987
1956
1851
1809
1738
1733
1788
1728
1755
1739
1756
1789
1750
1783
1766
1735
1760
1743
1806
2178
3225
4095
3606
2707
2121
1750
1637
1575
1616
1613
1613
1665
1664
1728
1744
1757
1776
1736
1792
1840
1807
1827
1823
1870
1902
1927
1991
2007
2077
2064
1961
1918
1808
1778
1715
1661
1661
1651
1670
1678
1706
1737
1703
1740
1753
1753
1789
1744
1799
1795
1767
1776
1761
1794
1822
1813
1819
1802
1809
1823
1862
1920
1935
2021
1995
1877
1819
1782
1792
1773
1777
1791
1775
1792
1743
1761
1815
1779
1831
1799
1778
1813
1959
2782
4018
3998
3158
2373
1936
1709
1605
1584
1585
1655
1689
1706
1757
1751
1815
1786
1743
1798
1799
1829
1819
1871
1904
1871
1923
1938
1948
2047
2047
2032
1909
1809
1775
1692
1683
1680
1695
1663
1645
1697
1703
1710
1757
1747
1741
1719
1733
1765
1753
1759
1751
1773
1790
1733
1763
1777
1741
1755
1777
1858
1890
1887
1951
1953
1921
1797
1739
1743
1722
1726
1698
1724
1761
1715
1707
1728
1728
1774
1775
1808
1776
1774
2083
2939
3794
3509
2817
2175
1786
1644
1591
1578
1610
1587
1650
1658
1669
1716
1746
1757
1731
1725
1777
1764
1774
1791
1836
1888
1904
1966
1997
2016
2002
1911
1905
1818
1746
1735
1658
1689
1661
1637
1681
1702
1728
1728
1757
1774
1745
1808
1771
1741
1783
1776
1818
1790
1776
1792
1764
1783
1787
1826
1816
1856
1932
1979
2000
1953
1853
1795
1735
1719
1739
1741
1757
1744
1744
1761
1763
1785
1770
1763
1786
1754
1861
2329
3375
3930
3285
2597
2032
1743
1634
1600
1629
1661
1662
1675
1671
1731
1747
1775
1806
1769
1808
1828
1834
1855
1861
1887
1929
1929
1968
2006
2070
2047
1994
1950
1871
1798
1726
1712
1749
1748
1759
1744
1736
1783
1778
1813
1841
1840
1834
1802
1843
1818
1808
1854
1815
1854
1841
1840
1839
1830
1846
1855
1895
1968
1981
2045
2007
1919
1877
1782
1756
1763
1818
1825
1785
1803
1797
1808
1820
1797
1850
1866
1824
1845
2141
3110
4095
3828
2879
2240
1883
1691
1611
1611
1604
1637
1667
1712
1767
1761
1783
1753
1759
1804
1792
1821
1859
1851
1883
1904
1954
1958
2011
2064
2043
2032
1957
1858
1791
1744
1762
1710
1669
1694
1703
1747
1735
1738
1760
1761
1838
1811
1809
1840
1807
1834
1810
1812
1839
1776
1811
1809
1853
1856
1789
1834
1859
1861
1943
1945
2000
1949
1881
1831
1765
1765
1754
1703
1703
1719
1786
1773
1744
1761
1760
1829
1799
1730
1807
2151
3243
4095
3854
2832
2131
1776
1597
1535
1600
1619
1649
1675
1694
1712
1687
1766
1776
1776
1811
1778
1810
1808
1829
1878
1904
1936
1967
2038
2094
2045
1979
1903
1840
1808
1732
1750
1694
1699
1723
1698
1799
1823
1877
1966
1962
1970
1953
1935
1942
1941
1969
1950
1923
1923
1891
1906
1890
1881
1903
1879
1935
1968
1978
1999
2022
2089
1984
1923
1879
1809
1814
1791
1805
1805
1758
1791
1806
1808
1796
1785
1845
1883
1841
1829
2032
3001
4095
4061
3060
2326
1891
1639
1562
1570
1569
1620
1636
1648
1712
1679
1706
1721
1747
1787
1757
1797
1829
1808
1840
1868
1936
1934
1955
2038
2041
2023
1893
1786
1744
1673
1664
1651
1665
1683
1639
1673
1712
1750
1733
1661
1641
1666
1709
1741
1729
1778
1749
1733
1744
1701
1730
1726
1785
1817
1776
1779
1766
1817
1898
1939
1950
1873
1797
1735
1710
1741
1713
1684
1690
1658
1707
1715
1702
1733
1734
1747
1758
1749
1791
2107
3088
3886
3495
2717
2043
1747
1615
1559
1584
1566
1606
1650
1685
1695
1691
1715
1729
1744
1750
1738
1778
1781
1807
1842
1867
1926
1936
1968
2035
2000
1957
1899
1825
1748
1678
1712
1661
1646
1713
1693
1744
1725
1726
1749
1727
1777
1762
1751
1780
1739
1790
1792
1791
1813
1798
1830
1840
1856
1825
1782
1843
1884
1966
2034
2013
1943
1833
1735
1757
1744
1744
1729
1761
1808
1743
1749
1779
1797
1802
1766
1786
1734
1840
2385
3477
3938
3259
2511
2005
1716
1621
1578
1598
1654
1629
1687
1693
1743
1755
1729
1755
1743
1781
1803
1783
1842
1856
1872
1875
1903
1997
2009
2044
2096
1997
1927
1845
1778
1758
1680
1703
1735
1746
1759
1715
1802
1809
1781
1778
1789
1866
1844
1840
1815
1819
1870
1805
1797
1843
1811
1791
1792
1810
1825
1811
1839
1856
1895
1970
1955
1983
1917
1842
1803
1751
1785
1786
1755
1741
1717
1761
1797
1788
1787
1801
1842
1793
1747
1872
2355
3568
4095
3492
2661
2064
1739
1598
1535
1602
1632
1651
1652
1680
1703
1727
1728
1713
1744
1797
1747
1773
1823
1817
1855
1877
1935
1967
2055
2082
2027
2009
1897
1834
1792
1729
1754
1703
1680
1726
1712
1713
1705
1722
1745
1729
1771
1785
1760
1766
1717
1715
1712
1738
1797
1793
1810
1776
1765
1764
1744
1778
1753
1796
1874
1897
1940
1965
1929
1875
1787
1772
1739
1731
1763
1759
1837
1791
1758
1767
1737
1780
1793
1818
1850
1790
1886
2418
3568
4064
3341
2583
2031
1735
1579
1535
1584
1565
1610
1676
1682
1710
1728
1727
1744
1733
1766
1769
1789
1821
1806
1865
1871
1918
1978
1972
2031
1991
1911
1855
1753
1729
1655
1670
1694
1649
1673
1664
1701
1702
1647
1702
1729
1735
1755
1744
1758
1733
1745
1759
1748
1786
1785
1777
1749
1761
1826
1778
1762
1803
1830
1877
1920
1982
1990
1923
1845
1760
1741
1754
1738
1762
1751
1733
1750
1748
1755
1734
1783
1810
1767
1766
1762
1987
2811
3805
3539
2875
2209
1853
1673
1659
1614
1633
1658
1680
1717
1682
1716
1756
1758
1819
1774
1776
1806
1763
1790
1843
1900
1935
1939
2054
2080
2033
2000
1936
1915
1833
1792
1783
1734
1755
1750
1761
1735
1715
1787
1822
1818
1831
1808
1828
1795
1819
1798
1761
1808
1805
1811
1840
1790
1829
1902
1849
1813
1847
1946
1989
2000
2036
2032
1973
1872
1792
1783
1798
1831
1793
1799
1833
1827
1831
1790
1811
1841
1808
1865
1791
1882
2432
3503
3985
3249
2502
2019
1733
1674
1627
1648
1691
1681
1706
1730
1786
1797
1758
1808
1803
1822
1853
1808
1853
1846
1893
1932
1936
1985
2008
2047
2062
1990
1942
1855
1808
1783
1729
1735
1734
1753
1777
1722
1761
1763
1787
1829
1793
1840
1810
1803
1806
1803
1821
1811
1827
1826
1798
1826
1823
1845
1853
1814
1879
1907
1935
1970
1984
1968
1843
1777
1761
1757
1799
1776
1782
1761
1753
1808
1785
1793
1825
1799
1837
1774
1776
1983
2733
4095
4095
3100
2349
1879
1682
1598
1553
1584
1603
1666
1650
1672
1712
1677
1733
1755
1759
1787
1783
1839
1839
1827
1839
1849
1924
1950
2026
2041
1998
1961
1863
1780
1734
1687
1710
1690
1701
1724
1725
1743
1699
1701
1740
1733
1776
1765
1771
1759
1744
1803
1796
1792
1751
1770
1809
1758
1803
1826
1761
1808
1840
1904
1949
1987
1933
1815
1745
1743
1744
1739
1697
1710
1771
1741
1719
1665
1694
1744
1759
1787
1745
1785
2098
2949
3771
3428
2715
2134
1824
1671
1562
1568
1584
1584
1627
1619
1658
1694
1699
1743
1725
1730
1719
1665
1743
1774
1833
1878
1882
1899
1943
2014
2011
1929
1863
1762
1731
1712
1715
1714
1685
1682
1692
1686
1725
1715
1757
1763
1731
1751
1761
1810
1792
1770
1810
1791
1808
1821
1811
1835
1792
1830
1855
1905
2002
1953
1911
1845
1799
1776
1690
1698
1712
1726
1768
1728
1754
1823
1793
1825
1823
1769
1739
1862
2453
3458
3600
3132
2411
1969
1712
1661
1641
1626
1696
1689
1712
1757
1774
1782
1746
1773
1783
1767
1840
1823
1858
1887
1872
1931
1927
1983
2062
2095
2111
1983
1904
1845
1791
1767
1718
1723
1711
1712
1741
1743
1745
1768
1780
1815
1779
1798
1817
1823
1837
1808
1827
1841
1824
1873
1853
1872
1907
1959
2065
2010
1933
1870
1862
1808
1728
1741
1749
1751
1794
1781
1808
1803
1795
1843
1847
1808
1786
1909
2649
3878
3901
3120
2371
1949
1714
1645
1615
1606
1680
1685
1728
1778
1774
1781
1760
1742
1744
1763
1808
1817
1840
1886
1905
1968
1926
1959
2022
2062
2061
1981
1895
1815
1750
1749
1751
1744
1733
1737
1779
1758
1738
1781
1777
1819
1796
1831
1845
1808
1809
1814
1795
1798
1807
1850
1871
1904
1958
1967
2000
1935
1889
1844
1743
1725
1728
1775
1784
1769
1823
1797
1776
1769
1776
1802
1759
1751
1825
2299
3555
4095
3563
2623
2032
1732
1579
1595
1600
1596
1663
1663
1706
1729
1681
1722
1737
1743
1757
1744
1776
1791
1856
1891
1813
1861
1930
2005
2058
2017
1987
1872
1856
1798
1689
1679
1659
1671
1698
1701
1754
1741
1749
1755
1735
1779
1730
1733
1745
1776
1847
1819
1808
1803
1826
1868
1850
1877
1921
1961
1954
1874
1835
1808
1759
1744
1721
1759
1771
1762
1789
1765
1778
1793
1788
1834
1738
1745
1965
2775
3963
3858
3056
2319
1840
1661
1583
1575
1591
1598
1650
1679
1730
1737
1714
1735
1750
1797
1778
1777
1837
1855
1856
1883
1861
1906
1955
2037
2047
1965
1927
1825
1792
1746
1689
1715
1707
1679
1706
1711
1754
1733
1730
1735
1771
1806
1765
1783
1777
1776
1835
1786
1778
1782
1805
1845
1833
1902
1933
1968
1999
1869
1766
1711
1712
1727
1699
1742
1771
1729
1769
1730
1714
1714
1709
1722
1682
1721
1979
2800
3827
3667
2962
2258
1818
1606
1511
1554
1585
1589
1638
1643
1697
1686
1695
1759
1741
1735
1744
1778
1805
1790
1838
1873
1902
1940
1955
1991
1988
1941
1904
1808
1725
1683
1659
1699
1705
1687
1688
1701
1750
1703
1731
1734
1722
1731
1737
1783
1771
1747
1770
1787
1839
1815
1830
1917
1931
1927
1873
1779
1759
1718
1722
1744
1744
1811
1744
1730
1744
1730
1777
1755
1785
1791
1772
1775
1958
2720
3692
3475
3028
2292
1858
1674
1584
1610
1623
1642
1674
1683
1686
1678
1726
1698
1681
1757
1744
1763
1803
1780
1822
1863
1886
1907
1942
2000
1988
1984
1959
1808
1744
1709
1712
1699
1685
1717
1715
1740
1741
1717
1740
1762
1785
1776
1794
1807
1770
1792
1807
1797
1851
1857
1872
1922
1970
2032
1915
1842
1808
1744
1755
1758
1786
1787
1787
1808
1776
1808
1805
1798
1817
1808
1794
1885
2425
3618
3902
3323
2597
2055
1799
1623
1630
1649
1667
1710
1723
1741
1769
1791
1829
1781
1767
1782
1788
1815
1803
1857
1895
1919
1966
1984
2041
2084
2059
1982
1901
1843
1787
1762
1776
1734
1771
1776
1762
1807
1781
1790
1780
1778
1849
1809
1825
1819
1805
1840
1817
1809
1855
1840
1860
1856
1937
1956
1968
1943
1857
1814
1771
1737
1772
1746
1717
1744
1746
1776
1781
1790
1809
1777
1799
1744
1824
2200
3195
4036
3487
2695
2082
1751
1657
1598
1626
1646
1664
1682
1637
1716
1727
1707
1755
1754
1764
1781
1792
1813
1780
1840
1877
1888
1968
1983
2071
2073
1968
1931
1822
1757
1744
1722
1735
1717
1749
1770
1750
1776
1759
1776
1775
1762
1797
1802
1815
1828
1791
1790
1791
1794
1820
1830
1904
1905
1951
1981
1993
1968
1897
1822
1760
1729
1742
1728
1743
1756
1746
1770
1764
1821
1809
1753
1767
1726
1754
2029
2935
4095
3858
2954
2245
1808
1621
1579
1603
1611
1590
1635
1680
1712
1723
1754
1787
1747
1780
1787
1802
1796
1773
1826
1862
1903
1964
1996
2047
2029
1931
1887
1794
1762
1728
1683
1700
1708
1695
1716
1687
1717
1725
1770
1763
1769
1792
1739
1755
1782
1776
1795
1758
1810
1808
1767
1813
1811
1872
1899
1921
1968
2000
1945
1871
1802
1789
1755
1761
1758
1750
1791
1782
1805
1808
1762
1776
1765
1823
1801
1712
1887
2619
3819
3918
3133
2390
1889
1664
1586
1597
1637
1602
1642
1664
1673
1712
1691
1699
1699
1722
1779
1790
1829
1843
1824
1867
1837
1879
1938
1975
2017
1962
1920
1831
1743
1715
1657
1639
1623
1637
1698
1659
1697
1696
1695
1738
1737
1777
1744
1712
1721
1742
1769
1776
1762
1783
1789
1798
1786
1782
1832
1839
1893
1955
1934
1906
1821
1773
1739
1727
1765
1734
1767
1750
1739
1717
1696
1729
1749
1753
1801
1757
1809
2034
2835
3645
3387
2832
2214
1863
1731
1659
1680
1646
1635
1686
1711
1728
1741
1742
1777
1779
1831
1851
1813
1823
1814
1840
1901
1917
1944
1981
2061
2063
1978
1950
1861
1802
1717
1668
1705
1700
1739
1749
1738
1733
1734
1776
1814
1782
1786
1767
1786
1819
1808
1824
1805
1844
1815
1793
1854
1851
1898
1964
1951
2005
1995
1968
1891
1790
1778
1730
1754
1775
1776
1790
1757
1791
1795
1778
1813
1773
1777
1772
1808
2217
3127
3905
3391
2640
2091
1755
1637
1616
1624
1651
1651
1683
1701
1713
1729
1725
1770
1778
1762
1790
1777
1825
1840
1872
1881
1863
1942
2021
2062
2029
1958
1904
1822
1765
1745
1706
1708
1707
1712
1761
1745
1744
1734
1754
1826
1792
1791
1798
1793
1830
1823
1843
1833
1831
1845
1807
1809
1831
1863
1902
1930
1965
2027
1963
1929
1860
1824
1770
1747
1760
1733
1773
1783
1789
1807
1776
1824
1812
1809
1830
1786
2000
2800
3991
3964
2992
2309
1903
1667
1622
1595
1648
1635
1639
1661
1675
1738
1737
1725
1766
1747
1797
1837
1841
1872
1847
1878
1904
1930
2000
2037
2033
1998
1931
1872
1760
1729
1715
1693
1709
1699
1711
1717
1759
1786
1743
1763
1792
1786
1814
1815
1821
1808
1802
1832
1808
1832
1808
1775
1806
1820
1854
1901
1955
1991
1983
1965
1858
1781
1779
1739
1755
1758
1753
1787
1757
1755
1751
1776
1840
1790
1776
1733
1801
2255
3344
4095
3717
2724
2131
1771
1637
1581
1560
1583
1600
1647
1694
1722
1753
1745
1776
1792
1778
1781
1776
1809
1859
1875
1909
1915
2000
2022
2029
2028
1954
1861
1770
1731
1744
1709
1708
1713
1715
1746
1710
1728
1710
1715
1745
1723
1759
1775
1765
1794
1770
1805
1767
1758
1785
1747
1756
1758
1814
1858
1843
1887
1936
1936
1893
1811
1747
1712
1685
1744
1738
1723
1702
1731
1767
1747
1776
1780
1786
1778
1723
1878
2511
3685
4012
3267
2461
1905
1651
1576
1569
1597
1593
1610
1675
1677
1712
1703
1731
1772
1753
1799
1825
1790
1818
1825
1886
1889
1904
1977
2017
2059
2000
1915
1879
1786
1739
1660
1663
1700
1671
1680
1686
1691
1722
1746
1767
1730
1718
1787
1751
1766
1739
1749
1781
1753
1761
1753
1744
1799
1803
1853
1878
1936
1951
1838
1776
1719
1696
1738
1711
1727
1703
1716
1757
1703
1718
1723
1740
1778
1723
1728
1875
2539
3635
3617
3111
2389
1887
1683
1593
1627
1630
1632
1664
1662
1725
1714
1713
1745
1737
1769
1747
1764
1776
1774
1834
1869
1883
1914
1965
2046
2025
1953
1902
1791
1765
1725
1727
1719
1679
1698
1703
1723
1763
1715
1749
1765
1787
1805
1798
1795
1773
1782
1808
1805
1827
1801
1792
1857
1861
1888
1917
1973
2002
1901
1835
1776
1759
1795
1767
1769
1743
1751
1776
1787
1780
1776
1802
1830
1799
1761
1851
2469
3684
3969
3281
2493
1980
1757
1630
1627
1648
1665
1711
1711
1719
1712
1742
1783
1774
1801
1793
1795
1810
1818
1904
1906
1930
1994
1986
2047
2093
2043
1983
1883
1843
1789
1773
1748
1693
1739
1761
1781
1801
1776
1791
1791
1813
1846
1855
1862
1840
1824
1860
1815
1811
1809
1826
1868
1872
1930
1921
1929
2014
2025
1970
1873
1809
1803
1791
1824
1822
1797
1811
1793
1791
1817
1840
1827
1820
1851
1822
1955
2637
3932
4095
3341
2489
1990
1694
1630
1619
1644
1659
1664
1685
1691
1716
1757
1727
1757
1783
1825
1838
1808
1841
1872
1875
1915
1966
1998
1997
2032
2042
1940
1881
1808
1757
1722
1694
1753
1712
1696
1733
1730
1747
1728
1767
1795
1756
1776
1786
1792
1809
1748
1763
1776
1791
1821
1799
1818
1842
1859
1909
1957
1989
1877
1808
1782
1712
1739
1733
1719
1757
1725
1748
1746
1776
1808
1764
1781
1759
1723
1873
2512
3792
4031
3205
2417
1910
1691
1573
1599
1611
1535
1614
1658
1680
1691
1696
1746
1744
1770
1809
1798
1803
1793
1823
1870
1901
1978
1965
1999
2047
1977
1924
1833
1759
1744
1709
1726
1713
1723
1727
1727
1757
1691
1744
1782
1726
1746
1746
1771
1796
1791
1807
1803
1792
1807
1782
1827
1830
1863
1921
1948
2038
2000
1908
1847
1754
1765
1783
1754
1760
1740
1759
1728
1750
1792
1805
1801
1744
1716
1764
2014
2901
3807
3648
2951
2208
1821
1641
1605
1599
1599
1657
1648
1662
1691
1687
1730
1743
1712
1710
1715
1776
1802
1837
1878
1854
1892
1936
2021
2073
2010
1932
1858
1795
1746
1676
1678
1669
1705
1680
1655
1717
1735
1717
1754
1743
1763
1776
1746
1762
1753
1781
1763
1787
1815
1823
1833
1799
1841
1911
1933
1929
1856
1808
1776
1733
1767
1746
1743
1762
1698
1724
1737
1749
1776
1761
1810
1769
1742
1936
2667
3745
3521
2941
2279
1854
1692
1631
1646
1637
1614
1681
1671
1683
1726
1686
1716
1730
1763
1797
1777
1827
1809
1807
1845
1887
1927
1971
2029
2031
1994
1974
1917
1815
1744
1679
1718
1717
1744
1758
1744
1787
1785
1784
1822
1822
1833
1814
1780
1792
1802
1847
1862
1856
1881
1879
1942
1949
1984
2016
1921
1882
1833
1813
1813
1765
1785
1788
1801
1825
1765
1759
1767
1785
1841
1821
1808
1883
2475
3685
4018
3335
2485
1989
1776
1637
1613
1616
1664
1697
1690
1729
1742
1730
1758
1761
1812
1815
1818
1840
1823
1859
1887
1900
1940
1979
2067
2073
2000
1936
1841
1840
1747
1713
1730
1690
1714
1709
1726
1759
1759
1759
1711
1727
1753
1739
1782
1771
1755
1795
1789
1808
1771
1761
1825
1851
1920
1943
1970
1973
1902
1840
1773
1739
1743
1753
1776
1755
1753
1762
1749
1820
1801
1790
1763
1722
1808
2163
3229
4095
3678
2803
2174
1783
1617
1578
1601
1616
1638
1700
1699
1733
1721
1701
1739
1731
1794
1793
1795
1835
1858
1872
1867
1923
1968
1970
2039
2015
1951
1892
1811
1776
1744
1725
1715
1694
1727
1701
1711
1770
1754
1786
1767
1790
1810
1777
1831
1819
1810
1831
1803
1798
1775
1814
1845
1872
1962
1972
1968
1904
1792
1773
1744
1728
1734
1734
1754
1744
1759
1781
1727
1789
1792
1763
1777
1754
1937
2653
3888
4023
3198
2416
1903
1657
1607
1582
1605
1600
1635
1678
1691
1727
1706
1747
1766
1754
1789
1742
1746
1841
1857
1904
1918
1920
1971
1991
2047
1970
1865
1783
1724
1727
1700
1682
1671
1641
1661
1675
1690
1731
1712
1729
1735
1723
1737
1712
1738
1741
1748
1763
1758
1763
1750
1808
1823
1855
1951
1955
1891
1792
1712
1798
1817
1795
1773
1750
1799
1819
1824
1846
1831
1830
1826
1855
1804
1792
2225
3204
3738
3394
2634
2080
1746
1639
1653
1667
1667
1627
1663
1686
1715
1771
1747
1744
1766
1789
1797
1761
1782
1841
1838
1872
1885
1949
2022
2021
1998
1904
1839
1799
1719
1701
1662
1695
1704
1699
1731
1696
1717
1739
1728
1774
1766
1774
1791
1772
1765
1761
1776
1799
1814
1856
1836
1842
1893
1943
1986
1889
1835
1783
1738
1762
1761
1764
1740
1733
1773
1734
1743
1759
1770
1813
1786
1763
1872
2414
3602
3845
3184
2432
1942
1744
1648
1648
1646
1642
1661
1682
1734
1745
1728
1766
1769
1783
1807
1819
1854
1840
1858
1885
1910
1981
1984
2041
2065
2023
1983
1880
1817
1767
1727
1739
1728
1757
1752
1729
1774
1769
1812
1835
1803
1813
1839
1834
1827
1831
1855
1806
1833
1854
1839
1904
1886
1947
1998
2006
1985
1873
1799
1795
1789
1790
1750
1741
1756
1749
1813
1808
1811
1803
1794
1854
1814
1878
2375
3539
4095
3475
2615
2091
1766
1662
1615
1649
1665
1665
1723
1722
1722
1750
1730
1779
1782
1791
1818
1780
1814
1856
1917
1929
1903
1968
2020
2067
2061
1968
1887
1774
1745
1773
1711
1711
1711
1710
1732
1739
1751
1747
1782
1822
1778
1792
1754
1782
1787
1775
1803
1794
1819
1831
1825
1873
1853
1886
1919
1929
1968
1906
1843
1810
1776
1776
1747
1766
1753
1744
1765
1755
1775
1798
1793
1831
1781
1716
1843
2305
3507
4095
3630
2662
2069
1791
1599
1535
1535
1584
1648
1678
1696
1694
1697
1776
1790
1763
1744
1733
1776
1810
1835
1853
1872
1936
1999
2037
2059
1962
1885
1783
1728
1719
1687
1685
1648
1668
1713
1708
1733
1713
1725
1767
1755
1744
1737
1749
1778
1775
1778
1769
1753
1739
1734
1797
1761
1754
1824
1821
1872
1904
1964
1929
1872
1803
1714
1728
1776
1745
1744
1707
1758
1773
1728
1734
1745
1780
1794
1707
1763
1972
2816
3851
3737
2953
2192
1808
1611
1519
1559
1554
1557
1600
1625
1680
1702
1696
1712
1734
1753
1747
1769
1785
1776
1863
1863
1887
1930
1936
2000
1971
1957
1890
1790
1737
1686
1689
1648
1646
1689
1671
1716
1712
1679
1710
1728
1727
1754
1759
1777
1709
1743
1769
1747
1789
1776
1747
1730
1776
1850
1840
1881
1914
1951
1936
1837
1759
1747
1717
1737
1689
1712
1711
1697
1719
1712
1737
1762
1742
1779
1729
1775
2093
2926
3795
3408
2789
2134
1735
1614
1585
1610
1630
1605
1678
1681
1713
1756
1730
1770
1749
1776
1794
1789
1798
1797
1855
1904
1930
1975
2000
2066
2062
1977
1922
1830
1792
1767
1762
1777
1722
1712
1741
1736
1771
1802
1794
1807
1801
1856
1840
1872
1862
1843
1873
1843
1839
1842
1834
1863
1902
1925
1968
2006
2022
1952
1918
1882
1819
1791
1791
1810
1811
1788
1808
1808
1828
1821
1798
1814
1801
1831
1853
2112
3111
4095
3719
2807
2181
1837
1650
1615
1623
1655
1712
1694
1731
1769
1792
1839
1754
1777
1818
1824
1851
1843
1872
1904
1922
1971
1967
2047
2112
2080
2032
1945
1869
1808
1753
1770
1770
1778
1744
1722
1755
1767
1803
1810
1806
1861
1835
1867
1863
1789
1840
1824
1830
1826
1841
1874
1824
1838
1875
1871
1887
1920
1972
2001
1924
1887
1825
1777
1775
1759
1765
1735
1766
1778
1756
1782
1776
1794
1791
1765
1777
1925
2725
4082
4029
3123
2342
1872
1635
1591
1616
1579
1607
1627
1641
1708
1706
1716
1699
1725
1799
1770
1777
1781
1807
1872
1840
1878
1917
1936
2033
1982
1924
1861
1787
1744
1695
1702
1699
1687
1744
1728
1729
1707
1695
1730
1723
1767
1781
1773
1807
1790
1805
1830
1767
1780
1785
1774
1795
1788
1819
1851
1920
1937
1921
2017
1947
1899
1825
1790
1765
1738
1741
1765
1756
1779
1758
1793
1792
1776
1824
1799
1770
1823
2150
3179
4067
3674
2801
2167
1813
1617
1602
1589
1602
1648
1623
1675
1706
1713
1758
1757
1797
1793
1780
1825
1805
1851
1866
1856
1904
1929
2027
2064
1984
1939
1838
1781
1741
1714
1678
1643
1668
1709
1690
1715
1718
1738
1757
1732
1763
1743
1766
1750
1735
1776
1728
1738
1773
1754
1777
1744
1771
1791
1802
1836
1851
1902
1963
1914
1859
1755
1741
1734
1697
1711
1712
1739
1776
1761
1739
1725
1767
1776
1765
1780
1761
2127
3089
3678
3408
2671
2061
1745
1595
1571
1535
1575
1600
1633
1705
1679
1713
1739
1746
1777
1737
1808
1860
1804
1811
1813
1865
1900
1942
2012
2029
2019
1935
1855
1814
1735
1712
1666
1683
1712
1666
1680
1704
1701
1713
1728
1791
1786
1733
1776
1738
1759
1761
1764
1792
1782
1789
1783
1779
1847
1855
1921
1983
2005
1983
1876
1807
1744
1717
1750
1727
1739
1750
1759
1796
1791
1814
1807
1785
1795
1750
1774
2055
2928
3946
3551
2817
2160
1806
1681
1616
1631
1647
1621
1674
1683
1739
1770
1773
1840
1798
1826
1826
1815
1837
1813
1856
1879
1917
1983
2018
2062
2081
2009
1968
1855
1808
1759
1712
1766
1761
1747
1751
1771
1806
1781
1828
1842
1812
1807
1808
1826
1836
1843
1860
1826
1861
1861
1850
1891
1886
1936
1965
1968
1983
1936
1872
1791
1763
1803
1757
1750
1756
1739
1799
1789
1792
1830
1830
1831
1760
1820
2108
3027
4095
3840
2899
2227
1849
1673
1569
1584
1622
1659
1691
1696
1749
1788
1773
1788
1776
1791
1790
1806
1844
1839
1873
1899
1904
1969
2003
2055
2044
1951
1893
1811
1790
1728
1680
1706
1680
1718
1728
1737
1744
1710
1749
1765
1750
1808
1776
1797
1813
1818
1793
1792
1806
1795
1781
1799
1796
1850
1856
1893
1952
1980
1993
1904
1771
1754
1734
1762
1758
1726
1760
1741
1776
1760
1776
1783
1751
1753
1744
1827
2262
3376
4095
3661
2687
2109
1741
1630
1559
1535
1614
1610
1655
1664
1691
1741
1706
1720
1776
1803
1791
1783
1834
1849
1836
1897
1924
1952
2000
2047
2059
1935
1870
1817
1758
1765
1728
1742
1744
1736
1759
1755
1774
1762
1777
1811
1797
1807
1827
1821
1862
1805
1811
1840
1856
1856
1828
1857
1861
1833
1879
1926
1999
2018
1940
1872
1789
1763
1746
1743
1782
1746
1760
1771
1751
1763
1751
1776
1774
1765
1769
1843
2435
3550
4048
3429
2527
1954
1652
1559
1585
1584
1642
1658
1665
1706
1682
1706
1720
1715
1744
1744
1763
1779
1792
1847
1855
1878
1906
1962
2029
2001
1933
1858
1817
1819
1730
1730
1705
1694
1720
1702
1731
1755
1739
1745
1727
1787
1791
1761
1746
1743
1769
1773
1776
1777
1770
1809
1792
1746
1820
1811
1846
1867
1889
1971
1949
1923
1820
1755
1762
1725
1727
1726
1734
1753
1722
1724
1774
1778
1809
1787
1755
1771
2064
2963
3583
3291
2677
2076
1778
1624
1598
1595
1616
1695
1682
1711
1740
1712
1735
1721
1771
1785
1744
1782
1795
1859
1869
1861
1904
1946
1987
1989
2005
2011
1879
1820
1769
1711
1721
1713
1731
1712
1683
1718
1717
1751
1785
1747
1760
1754
1790
1789
1801
1813
1794
1808
1808
1808
1824
1812
1850
1894
1898
1966
2000
2032
1987
1890
1853
1776
1776
1787
1749
1763
1748
1774
1781
1798
1802
1754
1783
1805
1767
1862
2291
3358
3893
3271
2559
2011
1742
1659
1632
1665
1659
1683
1718
1691
1743
1728
1750
1779
1771
1808
1789
1807
1833
1825
1861
1906
1951
1987
2021
2112
2064
2000
1903
1842
1840
1775
1744
1739
1744
1766
1754
1791
1792
1768
1818
1829
1855
1851
1840
1874
1831
1845
1851
1830
1857
1854
1855
1831
1833
1905
1907
1951
1975
1986
2012
1927
1849
1776
1757
1776
1744
1747
1741
1744
1795
1775
1776
1778
1800
1843
1747
1791
2127
3102
4095
3702
2780
2134
1788
1648
1584
1609
1645
1664
1690
1683
1733
1744
1755
1781
1733
1743
1757
1775
1835
1840
1925
1936
1922
1988
2015
2015
1986
1907
1868
1801
1763
1692
1681
1712
1683
1711
1687
1662
1696
1705
1725
1734
1737
1759
1757
1794
1812
1807
1824
1808
1804
1760
1769
1815
1802
1819
1851
1861
1926
1935
1984
1943
1889
1832
1744
1749
1772
1767
1776
1747
1774
1792
1788
1796
1793
1803
1795
1769
1778
2065
3043
4095
3728
2883
2203
1840
1659
1567
1600
1600
1653
1663
1685
1744
1731
1756
1779
1809
1824
1766
1795
1823
1843
1901
1904
1968
1999
2025
2059
2017
1968
1885
1797
1774
1728
1715
1719
1717
1750
1717
1738
1715
1726
1776
1765
1803
1774
1742
1781
1772
1743
1744
1750
1805
1757
1759
1761
1757
1803
1808
1839
1870
1882
1952
1899
1862
1774
1729
1750
1709
1737
1754
1742
1770
1742
1755
1763
1743
1771
1748
1744
1759
2133
3111
3627
3346
2670
2047
1767
1633
1606
1587
1607
1669
1673
1696
1714
1705
1731
1731
1776
1777
1766
1803
1790
1838
1849
1873
1942
1959
2057
2022
1987
1929
1823
1793
1745
1684
1683
1660
1713
1715
1711
1712
1721
1755
1753
1766
1786
1737
1753
1760
1754
1792
1780
1800
1793
1785
1808
1790
1799
1851
1843
1872
1882
1985
1983
1895
1821
1744
1750
1738
1747
1786
1718
1746
1738
1716
1776
1731
1770
1771
1747
1774
1978
2788
3679
3379
2854
2192
1850
1690
1619
1634
1616
1689
1709
1712
1749
1744
1771
1798
1805
1841
1791
1786
1823
1843
1874
1865
1919
1968
2030
2098
2013
1963
1883
1831
1843
1753
1757
1725
1697
1744
1723
1742
1750
1792
1842
1822
1843
1799
1841
1872
1847
1902
1856
1826
1863
1859
1873
1845
1866
1937
1935
1994
2033
2045
1975
1885
1843
1794
1776
1802
1778
1805
1793
1796
1809
1771
1805
1839
1828
1807
1721
1874
2438
3686
4095
3344
2522
2017
1718
1648
1580
1594
1625
1643
1691
1685
1727
1730
1738
1744
1715
1785
1794
1771
1787
1807
1862
1888
1919
1987
2033
2063
2022
1941
1857
1759
1744
1713
1697
1728
1728
1744
1743
1742
1766
1761
1790
1760
1757
1790
1799
1823
1808
1791
1826
1812
1819
1813
1812
1840
1816
1879
1921
1953
2023
2003
1953
1866
1819
1780
1739
1744
1738
1753
1778
1769
1791
1808
1839
1806
1763
1777
1795
2060
3002
4095
3845
2896
2206
1830
1663
1583
1535
1568
1616
1625
1680
1690
1727
1746
1745
1797
1776
1773
1791
1797
1837
1873
1862
1904
1954
2047
2026
2000
1938
1841
1850
1775
1692
1691
1680
1714
1725
1702
1741
1703
1749
1776
1775
1791
1791
1829
1797
1776
1785
1790
1818
1815
1809
1821
1787
1825
1857
1906
1962
1958
1965
1893
1828
1793
1767
1798
1773
1761
1791
1762
1809
1808
1793
1801
1758
1795
1801
1769
1906
2529
3619
3760
3216
2479
1935
1683
1617
1607
1584
1595
1658
1668
1669
1711
1712
1759
1767
1776
1777
1776
1808
1835
1857
1885
1888
1936
1939
1970
2022
1978
1905
1808
1762
1741
1640
1659
1660
1649
1702
1696
1723
1735
1726
1740
1713
1745
1772
1780
1766
1730
1755
1781
1781
1787
1778
1827
1852
1857
1919
1891
1874
1810
1767
1748
1712
1735
1747
1741
1726
1695
1726
1706
1716
1763
1728
1740
1712
1791
2370
3251
3410
3066
2447
1936
1680
1602
1567
1584
1611
1630
1727
1728
1727
1729
1743
1797
1755
1768
1789
1798
1861
1863
1887
1975
1968
2016
2033
2032
1997
1896
1815
1761
1746
1715
1693
1717
1687
1719
1757
1733
1783
1777
1777
1802
1776
1771
1747
1793
1819
1789
1795
1795
1821
1853
1853
1904
1887
1929
1948
1883
1837
1783
1760
1760
1731
1771
1767
1755
1776
1732
1798
1792
1797
1831
1775
1776
1943
2659
3777
3487
2914
2252
1849
1706
1654
1689
1655
1639
1693
1712
1749
1758
1763
1777
1769
1829
1819
1824
1862
1867
1910
1905
1922
1988
2016
2089
2043
1985
1923
1826
1852
1808
1717
1733
1728
1763
1737
1712
1744
1747
1776
1795
1812
1840
1830
1839
1791
1803
1826
1821
1871
1878
1893
1942
2000
2004
1899
1850
1840
1821
1799
1755
1744
1766
1783
1827
1782
1795
1789
1759
1808
1811
1770
1843
2310
3492
4093
3410
2559
2011
1751
1645
1626
1621
1625
1680
1694
1730
1746
1739
1769
1759
1773
1803
1807
1820
1833
1872
1886
1895
1990
2031
2021
2017
1977
1942
1856
1787
1744
1706
1728
1703
1701
1738
1709
1754
1734
1753
1761
1779
1805
1786
1778
1808
1776
1814
1815
1841
1841
1823
1905
1926
1937
1922
1965
1987
1893
1811
1781
1744
1794
1791
1781
1759
1757
1797
1772
1805
1830
1776
1809
1747
1811
2159
3120
4095
3747
2792
2163
1781
1649
1574
1603
1648
1632
1664
1672
1711
1749
1758
1808
1767
1799
1841
1785
1849
1872
1875
1917
1929
1999
2023
2093
2058
1931
1840
1757
1747
1728
1684
1712
1702
1711
1727
1694
1724
1742
1744
1763
1733
1778
1777
1796
1825
1794
1776
1776
1792
1804
1797
1821
1835
1856
1904
1926
1980
1918
1872
1823
1738
1744
1738
1738
1771
1747
1767
1749
1755
1744
1734
1762
1749
1738
1767
1963
2727
3811
3795
3019
2263
1866
1642
1586
1572
1567
1616
1638
1658
1687
1697
1727
1741
1767
1765
1761
1775
1778
1841
1869
1865
1911
1938
2001
2037
1984
1955
1847
1748
1713
1674
1664
1657
1648
1663
1657
1696
1706
1732
1759
1718
1735
1759
1744
1758
1744
1755
1729
1758
1799
1783
1791
1745
1770
1808
1801
1819
1835
1874
1920
1930
1885
1804
1753
1738
1729
1778
1757
1760
1776
1750
1741
1727
1739
1753
1745
1792
1765
1820
2117
2922
3618
3293
2687
2069
1756
1710
1657
1631
1649
1665
1712
1714
1726
1760
1747
1776
1765
1744
1758
1779
1837
1856
1889
1936
1931
2001
2034
2029
1968
1879
1838
1791
1742
1740
1681
1719
1712
1714
1710
1685
1738
1733
1749
1791
1805
1812
1796
1799
1811
1803
1840
1831
1825
1822
1808
1856
1826
1836
1856
1898
1968
1979
2023
2071
2000
1951
1863
1818
1797
1795
1831
1797
1808
1829
1820
1863
1834
1840
1831
1807
1829
1805
1938
2399
3409
3902
3271
2544
2077
1781
1702
1675
1670
1712
1687
1734
1731
1754
1803
1819
1805
1798
1830
1862
1841
1909
1897
1898
1935
1959
2035
2032
2063
2047
1970
1895
1808
1760
1733
1693
1737
1696
1683
1709
1735
1776
1763
1747
1754
1739
1810
1783
1808
1824
1791
1840
1839
1827
1807
1803
1840
1815
1824
1826
1820
1867
1882
1931
1951
1998
1987
1886
1819
1794
1737
1776
1776
1794
1808
1776
1791
1773
1803
1818
1813
1847
1791
1776
1899
2426
3632
4025
3281
2451
1966
1747
1648
1626
1599
1616
1674
1687
1747
1751
1738
1765
1766
1815
1857
1857
1875
1871
1926
1929
1953
2002
2003
2038
2061
2006
1963
1856
1765
1727
1677
1690
1693
1710
1710
1695
1747
1731
1746
1749
1733
1799
1776
1771
1760
1769
1779
1792
1817
1822
1807
1807
1790
1799
1797
1753
1789
1791
1834
1846
1861
1915
1936
1968
1903
1826
1821
1726
1731
1749
1744
1776
1756
1749
1758
1766
1811
1805
1822
1795
1729
1821
2176
3150
3847
3374
2634
2032
1742
1638
1611
1616
1618
1646
1664
1667
1685
1680
1701
1724
1713
1766
1777
1802
1826
1823
1875
1895
1968
1984
1974
2023
1983
1904
1829
1733
1698
1655
1660
1681
1680
1712
1663
1697
1713
1706
1732
1697
1719
1729
1743
1757
1727
1737
1759
1782
1791
1759
1755
1758
1744
1760
1763
1791
1767
1786
1872
1893
1933
1973
1936
1856
1735
1721
1730
1744
1776
1733
1733
1744
1734
1741
1744
1790
1744
1731
1758
1730
1930
2525
3358
3332
2863
2247
1840
1670
1648
1595
1632
1648
1648
1664
1653
1726
1741
1720
1760
1744
1774
1786
1791
1849
1842
1894
1910
1936
2043
2058
2064
2022
1932
1846
1761
1759
1750
1698
1701
1675
1697
1719
1750
1809
1725
1728
1734
1759
1817
1785
1818
1806
1787
1819
1790
1830
1819
1792
1798
1793
1817
1824
1826
1901
1927
1957
2027
2010
1947
1807
1777
1754
1738
1777
1761
1810
1831
1808
1822
1804
1840
1846
1810
1808
1776
1983
2723
3752
3600
2864
2230
1899
1743
1715
1648
1690
1680
1672
1724
1742
1763
1787
1797
1847
1826
1880
1859
1860
1927
1899
1938
1983
2022
2101
2123
2151
2082
1968
1929
1795
1757
1754
1741
1747
1748
1769
1760
1783
1794
1742
1771
1796
1807
1840
1808
1840
1830
1838
1870
1816
1842
1825
1797
1863
1819
1822
1878
1888
1971
1990
2053
2001
1904
1847
1770
1781
1773
1781
1810
1764
1773
1805
1803
1826
1807
1850
1850
1786
1845
2111
3011
4095
3721
2822
2174
1873
1725
1653
1683
1664
1718
1729
1744
1798
1766
1803
1808
1817
1870
1837
1837
1871
1886
1926
1953
2034
2041
2047
2130
2095
2031
1926
1830
1776
1689
1693
1699
1710
1718
1712
1767
1744
1714
1754
1729
1761
1779
1776
1787
1776
1796
1776
1781
1807
1775
1787
1808
1783
1805
1787
1846
1841
1858
1919
1953
1936
1854
1793
1763
1739
1763
1753
1744
1744
1738
1777
1775
1757
1761
1747
1807
1746
1755
2160
3089
3905
3479
2644
2096
1747
1642
1600
1596
1653
1639
1654
1683
1728
1746
1741
1792
1831
1799
1801
1808
1868
1857
1874
1934
1936
2013
2058
2082
2062
1927
1855
1809
1739
1685
1666
1687
1650
1665
1701
1700
1693
1717
1728
1717
1693
1727
1738
1703
1738
1745
1776
1769
1723
1758
1767
1773
1744
1732
1790
1782
1819
1871
1906
1970
1867
1789
1729
1680
1712
1705
1733
1696
1653
1680
1690
1749
1746
1738
1755
1692
1707
1910
2551
3426
3261
2867
2236
1825
1723
1625
1614
1635
1669
1683
1669
1699
1715
1743
1785
1758
1796
1777
1750
1793
1837
1875
1904
1920
1983
1993
2077
2078
1997
1936
1823
1770
1712
1680
1706
1678
1718
1757
1739
1713
1658
1722
1755
1743
1785
1759
1781
1791
1808
1838
1827
1838
1797
1777
1845
1889
1945
1936
1945
2000
2000
1959
1857
1809
1805
1776
1797
1807
1769
1815
1824
1829
1776
1783
1842
1799
1808
1875
2188
3069
3741
3351
2676
2079
1808
1674
1674
1679
1712
1739
1721
1771
1748
1765
1794
1776
1817
1814
1825
1861
1840
1888
1893
1917
1975
1987
2058
2087
2096
2039
1930
1882
1808
1754
1728
1718
1748
1748
1725
1728
1745
1774
1770
1787
1810
1810
1829
1808
1789
1814
1804
1819
1803
1809
1874
1869
1904
1926
1966
1978
1919
1867
1798
1742
1751
1740
1767
1776
1771
1793
1759
1787
1781
1793
1819
1753
1793
2081
2951
4060
3627
2768
2143
1821
1687
1613
1634
1643
1685
1728
1728
1761
1744
1757
1767
1762
1818
1808
1826
1855
1860
1909
1931
1974
2026
2059
2086
2071
2001
1931
1825
1805
1739
1689
1710
1699
1759
1757
1747
1733
1732
1778
1790
1777
1791
1773
1821
1808
1808
1806
1744
1763
1776
1808
1855
1839
1931
1975
1970
1933
1841
1788
1759
1755
1771
1742
1783
1775
1803
1818
1725
1755
1774
1802
1773
1775
2029
2832
4095
3982
2944
2252
1836
1639
1591
1563
1600
1639
1680
1701
1675
1715
1728
1731
1778
1793
1815
1822
1810
1835
1849
1931
1933
1957
2021
2059
2064
1985
1910
1840
1723
1712
1661
1680
1715
1677
1697
1685
1677
1711
1683
1726
1735
1753
1759
1744
1769
1746
1737
1762
1771
1815
1833
1824
1826
1872
1954
1933
1868
1842
1770
1757
1744
1727
1753
1724
1745
1746
1770
1768
1717
1744
1761
1732
1729
1890
2639
3722
3803
3096
2315
1890
1655
1579
1582
1591
1648
1660
1661
1676
1673
1713
1712
1717
1744
1745
1785
1771
1807
1907
1870
1909
1943
2000
2001
1959
1962
1887
1811
1765
1737
1711
1652
1671
1712
1648
1690
1679
1702
1755
1718
1739
1744
1731
1751
1743
1745
1755
1744
1757
1764
1805
1805
1797
1846
1855
1920
1950
1895
1854
1782
1779
1753
1759
1770
1769
1762
1745
1759
1774
1773
1825
1802
1749
1756
1869
2448
3415
3459
3011
2324
1889
1690
1648
1649
1645
1680
1691
1712
1702
1695
1755
1747
1765
1794
1744
1785
1776
1823
1873
1873
1904
1944
1970
2011
1993
2000
1933
1870
1808
1750
1761
1738
1727
1747
1717
1755
1729
1747
1777
1781
1834
1831
1819
1849
1818
1845
1844
1875
1862
1802
1810
1808
1860
1922
1937
2019
2003
1977
1930
1846
1824
1754
1745
1773
1742
1760
1749
1777
1809
1806
1809
1816
1827
1825
1794
2091
3003
3971
3542
2723
2147
1839
1697
1671
1680
1703
1663
1681
1727
1737
1762
1753
1776
1799
1805
1862
1862
1839
1857
1877
1950
1939
1967
2058
2089
2082
1986
1926
1872
1780
1759
1754
1714
1723
1734
1774
1751
1755
1791
1773
1825
1822
1805
1794
1781
1823
1809
1807
1822
1803
1822
1825
1823
1813
1825
1885
1874
1878
1935
1968
1942
1846
1808
1825
1808
1758
1707
1733
1776
1747
1777
1776
1790
1797
1788
1840
1783
1838
2227
3206
4095
3519
2688
2144
1794
1701
1632
1637
1680
1719
1743
1706
1739
1773
1779
1841
1828
1819
1833
1847
1897
1929
1905
1904
1919
2005
2041
2077
2035
1949
1893
1811
1783
1769
1695
1695
1679
1740
1747
1740
1743
1738
1773
1778
1752
1791
1791
1771
1797
1803
1817
1827
1825
1799
1783
1837
1840
1847
1853
1859
1917
1931
1970
2000
1963
1915
1808
1777
1781
1771
1813
1774
1762
1791
1774
1793
1809
1817
1813
1791
1787
1783
2031
2896
3888
3781
2897
2194
1826
1628
1600
1563
1585
1631
1643
1661
1648
1671
1712
1707
1703
1702
1741
1757
1773
1814
1846
1879
1904
1892
1970
1999
2007
1987
1853
1770
1709
1705
1699
1635
1681
1678
1711
1714
1685
1690
1695
1710
1741
1736
1748
1739
1744
1744
1717
1744
1714
1730
1737
1734
1751
1739
1777
1797
1777
1865
1861
1945
1940
1867
1817
1747
1707
1719
1736
1757
1681
1680
1689
1692
1732
1723
1766
1766
1760
1734
1835
2412
3350
3396
3050
2339
1894
1721
1633
1680
1648
1663
1655
1669
1728
1731
1776
1753
1727
1779
1763
1785
1805
1803
1842
1858
1893
1909
1917
2003
1999
1985
1936
1824
1770
1727
1737
1680
1648
1701
1712
1725
1738
1734
1789
1757
1771
1791
1783
1825
1794
1798
1809
1805
1823
1826
1814
1785
1774
1825
1840
1889
1918
1936
1979
2030
2037
1968
1840
1802
1782
1795
1808
1809
1840
1802
1846
1827
1813
1845
1819
1843
1819
1796
1950
2512
3664
3925
3233
2477
2000
1767
1667
1635
1693
1680
1708
1737
1757
1801
1802
1837
1831
1808
1843
1829
1856
1882
1887
1933
1947
2002
2074
2105
2149
2034
1943
1879
1815
1791
1745
1744
1744
1729
1744
1770
1827
1803
1750
1787
1775
1808
1837
1811
1849
1806
1811
1856
1797
1834
1840
1837
1791
1777
1804
1789
1859
1907
1904
1939
1991
2010
1937
1836
1806
1777
1776
1786
1779
1825
1776
1772
1778
1812
1838
1808
1808
1799
1761
1872
2368
3550
4095
3319
2514
2011
1751
1639
1600
1617
1611
1680
1685
1696
1747
1759
1783
1789
1767
1808
1783
1823
1837
1830
1877
1897
1965
2014
2030
2073
2010
1936
1862
1799
1771
1710
1700
1715
1685
1727
1695
1705
1744
1762
1775
1767
1777
1808
1801
1811
1760
1803
1815
1811
1827
1800
1839
1831
1808
1812
1777
1781
1796
1840
1910
1914
1969
2011
1949
1895
1800
1782
1744
1719
1763
1747
1765
1778
1772
1792
1777
1781
1810
1800
1776
1759
1961
2753
3811
3766
2924
2234
1840
1636
1616
1592
1600
1611
1637
1686
1675
1691
1716
1717
1738
1735
1761
1775
1809
1831
1856
1887
1905
1930
1993
2029
2021
1958
1872
1817
1733
1721
1712
1657
1691
1709
1735
1726
1670
1689
1682
1719
1716
1721
1757
1712
1748
1793
1775
1791
1781
1793
1737
1726
1782
1757
1767
1769
1757
1799
1798
1840
1819
1872
1971
1968
1897
1769
1712
1741
1711
1714
1718
1699
1744
1731
1761
1759
1744
1777
1744
1763
1718
1856
2386
3285
3398
2991
2400
1975
1729
1653
1629
1631
1695
1726
1743
1765
1773
1777
1777
1807
1781
1782
1826
1822
1873
1898
1875
1925
1936
1984
2037
2039
2031
1981
1929
1856
1815
1814
1766
1751
1741
1733
1763
1731
1762
1805
1813
1822
1823
1853
1855
1840
1846
1835
1859
1836
1850
1894
1815
1835
1854
1872
1873
1895
1937
1968
1985
2091
2014
1909
1823
1808
1840
1810
1790
1782
1811
1843
1803
1786
1783
1779
1808
1823
1835
1811
2017
2764
3697
3479
2842
2209
1901
1753
1681
1676
1680
1709
1744
1769
1777
1766
1777
1815
1793
1773
1792
1842
1840
1851
1899
1920
1913
1955
2074
2106
2046
2007
1938
1872
1807
1740
1745
1711
1713
1733
1785
1795
1722
1723
1741
1791
1803
1805
1829
1837
1838
1853
1809
1852
1840
1806
1845
1847
1848
1811
1804
1851
1865
1916
1936
1968
2017
1966
1886
1819
1758
1757
1779
1777
1759
1776
1794
1792
1776
1781
1802
1837
1815
1782
1777
2059
2923
3760
3468
2736
2133
1809
1667
1678
1632
1623
1686
1712
1751
1744
1789
1787
1774
1808
1808
1811
1827
1846
1872
1904
1899
1921
1969
2071
2096
2029
1971
1943
1872
1758
1728
1729
1709
1729
1733
1743
1755
1739
1731
1765
1789
1779
1781
1810
1805
1807
1831
1804
1833
1840
1808
1847
1839
1810
1819
1844
1872
1889
1926
1946
2010
1976
1872
1797
1755
1758
1792
1773
1798
1764
1778
1799
1777
1775
1798
1825
1839
1773
1798
2112
2966
3855
3583
2811
2173
1823
1680
1600
1630
1654
1677
1705
1728
1743
1749
1767
1769
1798
1819
1813
1804
1792
1818
1885
1915
1925
1975
2017
2064
2059
1982
1903
1799
1783
1743
1698
1681
1684
1712
1728
1738
1744
1744
1758
1792
1767
1759
1765
1776
1766
1746
1771
1767
1774
1755
1766
1812
1807
1806
1826
1874
1943
1967
1907
1823
1801
1762
1713
1742
1728
1722
1776
1749
1747
1727
1738
1775
1750
1774
1727
1777
2172
3041
3485
3242
2583
2011
1731
1666
1647
1601
1590
1614
1657
1685
1726
1763
1764
1792
1815
1774
1769
1792
1853
1841
1847
1866
1898
1991
2005
1998
2009
1926
1865
1777
1684
1667
1664
1696
1693
1708
1717
1661
1728
1731
1727
1766
1762
1767
1768
1770
1793
1742
1767
1789
1777
1776
1771
1783
1773
1822
1874
1861
1911
1952
1953
1903
1814
1779
1744
1717
1717
1728
1764
1771
1770
1794
1769
1767
1744
1759
1774
1776
1983
2654
3478
3329
2821
2202
1835
1699
1681
1641
1652
1655
1679
1710
1733
1782
1762
1763
1821
1808
1829
1823
1843
1853
1850
1911
1941
1990
2054
2057
2106
2041
1935
1840
1797
1793
1767
1772
1773
1734
1767
1775
1808
1821
1765
1770
1773
1803
1811
1787
1815
1835
1841
1840
1797
1804
1831
1871
1893
1908
1984
1995
1971
1917
1841
1815
1797
1802
1819
1772
1786
1776
1786
1804
1759
1775
1791
1809
1793
1759
1967
2663
3798
3858
3024
2330
1889
1694
1648
1639
1659
1678
1728
1759
1739
1739
1734
1766
1797
1796
1840
1823
1827
1900
1903
1938
1970
2032
2096
2073
2077
2011
1952
1889
1792
1783
1754
1742
1757
1703
1715
1712
1734
1759
1763
1798
1805
1803
1847
1815
1833
1792
1821
1840
1799
1807
1814
1823
1878
1835
1815
1811
1855
1909
1936
1993
1974
1889
1836
1779
1783
1786
1783
1797
1793
1779
1749
1745
1791
1788
1808
1798
1767
1908
2394
3534
4053
3361
2544
1997
1714
1578
1599
1615
1600
1647
1684
1722
1750
1715
1743
1773
1747
1777
1786
1835
1822
1842
1903
1914
1952
2027
2027
2000
1921
1921
1859
1776
1723
1686
1707
1678
1686
1722
1690
1719
1709
1673
1710
1709
1757
1767
1786
1811
1749
1742
1722
1744
1793
1783
1790
1750
1775
1805
1751
1783
1780
1808
1863
1879
1965
1935
1872
1804
1743
1772
1717
1694
1709
1702
1723
1738
1770
1758
1729
1759
1756
1779
1737
1806
2259
3141
3490
3190
2489
1991
1691
1613
1584
1587
1648
1634
1645
1669
1652
1691
1733
1731
1746
1717
1757
1772
1819
1865
1858
1910
1893
1923
1985
1983
1974
1879
1803
1759
1681
1668
1648
1680
1644
1610
1663
1630
1627
1676
1693
1744
1739
1729
1789
1744
1728
1715
1733
1725
1719
1747
1753
1776
1782
1779
1786
1765
1753
1814
1810
1876
1919
1976
1959
1876
1813
1759
1751
1791
1730
1744
1769
1787
1756
1744
1793
1813
1807
1816
1814
1810
1904
2394
3381
3664
3210
2480
1998
1811
1700
1698
1699
1690
1714
1739
1787
1789
1794
1789
1779
1818
1838
1838
1856
1888
1936
1920
1943
1989
2002
2069
2080
2032
1999
1910
1877
1797
1762
1745
1729
1759
1738
1743
1753
1745
1813
1795
1819
1815
1815
1855
1812
1817
1819
1834
1874
1836
1815
1861
1842
1856
1842
1857
1872
1870
1930
1923
1990
2021
2027
2037
1914
1808
1803
1776
1808
1799
1826
1826
1813
1842
1841
1841
1856
1842
1847
1788
1811
1984
2597
3687
3726
3056
2373
1971
1793
1678
1661
1655
1667
1718
1744
1751
1764
1776
1808
1794
1840
1877
1855
1872
1890
1882
1907
1911
1985
2033
2068
2066
1999
1953
1847
1777
1727
1709
1714
1738
1743
1707
1679
1742
1743
1747
1775
1758
1786
1792
1776
1796
1792
1806
1758
1778
1802
1768
1808
1815
1821
1809
1796
1821
1782
1827
1872
1877
1892
1887
1949
1984
1940
1861
1794
1789
1776
1749
1795
1789
1802
1802
1777
1803
1793
1817
1814
1803
1813
1785
1990
2763
3721
3667
2905
2238
1861
1643
1633
1627
1616
1613
1641
1690
1691
1716
1742
1765
1811
1803
1789
1774
1782
1859
1831
1867
1910
1951
2021
2071
2067
2019
1925
1884
1825
1728
1652
1645
1707
1683
1690
1715
1733
1767
1765
1775
1776
1771
1776
1765
1773
1776
1775
1793
1808
1818
1804
1776
1798
1792
1811
1813
1776
1791
1763
1797
1838
1847
1872
1897
1951
1965
1866
1829
1745
1734
1749
1739
1738
1716
1734
1769
1744
1744
1731
1773
1787
1779
1749
1757
2096
2950
3423
3191
2609
2057
1774
1635
1643
1645
1649
1648
1627
1655
1650
1698
1715
1719
1755
1733
1751
1786
1793
1843
1851
1873
1911
1941
1999
2019
2039
1985
1907
1868
1792
1722
1667
1698
1707
1646
1667
1727
1742
1744
1731
1750
1763
1773
1783
1766
1785
1790
1767
1806
1796
1788
1807
1829
1859
1789
1799
1824
1822
1875
1899
1915
1942
2005
2013
1941
1853
1834
1751
1744
1754
1792
1776
1747
1792
1772
1789
1808
1808
1831
1790
1777
1968
2607
3655
3518
2951
2304
1909
1776
1697
1648
1655
1692
1776
1776
1791
1819
1795
1829
1818
1854
1859
1850
1873
1840
1883
1951
1983
2031
2074
2128
2132
2094
2026
1907
1836
1783
1757
1758
1728
1749
1768
1755
1776
1767
1785
1797
1808
1842
1835
1862
1847
1835
1863
1808
1834
1809
1811
1852
1838
1863
1859
1840
1840
1862
1914
1904
1920
1993
1985
1951
1873
1792
1767
1765
1771
1773
1770
1765
1727
1791
1776
1759
1808
1803
1837
1803
1936
2646
4013
4095
2991
2246
1913
1706
1635
1616
1621
1699
1683
1686
1701
1745
1799
1779
1807
1759
1744
1790
1795
1837
1857
1886
1942
1967
2023
2079
2043
2033
1947
1867
1786
1722
1730
1683
1682
1694
1712
1728
1715
1718
1711
1712
1745
1744
1780
1796
1776
1776
1770
1791
1805
1798
1798
1785
1821
1808
1808
1820
1828
1903
1920
1917
1968
2012
1987
1887
1804
1802
1805
1818
1776
1762
1810
1762
1803
1802
1798
1818
1806
1825
1822
1771
2003
2741
3799
3619
2845
2198
1817
1677
1643
1637
1674
1651
1654
1703
1712
1727
1755
1787
1719
1733
1744
1735
1786
1835
1856
1883
1913
1957
1981
1984
2014
1961
1907
1841
1785
1781
1687
1677
1665
1662
1665
1663
1718
1735
1707
1723
1753
1744
1716
1741
1787
1777
1825
1771
1743
1791
1755
1785
1788
1777
1794
1795
1819
1809
1747
1806
1817
1835
1863
1895
1936
1968
1987
1917
1815
1775
1757
1735
1719
1759
1753
1771
1810
1781
1730
1774
1789
1829
1801
1817
2023
2733
3763
3509
2800
2167
1795
1682
1642
1648
1679
1651
1707
1712
1707
1759
1765
1771
1791
1740
1775
1765
1797
1808
1847
1881
1872
1936
1975
2054
2092
2027
1991
1889
1810
1766
1714
1722
1715
1719
1729
1746
1734
1717
1742
1776
1791
1809
1795
1809
1835
1787
1808
1810
1787
1800
1813
1886
1853
1794
1813
1790
1837
1855
1849
1869
1872
1937
1968
1999
2057
1970
1926
1824
1792
1805
1808
1797
1792
1813
1846
1803
1842
1833
1795
1826
1837
1829
1828
1993
2765
3785
3725
2928
2221
1875
1728
1693
1634
1615
1701
1690
1736
1738
1743
1772
1741
1781
1802
1777
1789
1791
1866
1862
1843
1904
1916
1987
2029
2045
2046
1940
1881
1794
1716
1728
1706
1712
1687
1712
1727
1738
1783
1760
1754
1789
1761
1772
1770
1788
1809
1794
1808
1778
1781
1812
1805
1845
1813
1777
1799
1781
1810
1836
1872
1905
1935
2017
1975
1905
1884
1798
1782
1781
1794
1769
1750
1782
1775
1779
1808
1806
1808
1785
1786
1782
1919
2592
3665
3787
3090
2350
1962
1719
1645
1631
1646
1669
1675
1691
1744
1735
1783
1825
1807
1793
1795
1840
1829
1839
1872
1856
1907
1968
2035
2073
2039
2037
1955
1902
1799
1727
1726
1731
1743
1737
1696
1729
1745
1757
1776
1744
1784
1819
1805
1783
1771
1790
1783
1757
1767
1744
1769
1775
1785
1811
1808
1868
1834
1834
1902
1910
1915
1867
1790
1774
1735
1751
1743
1748
1734
1702
1705
1687
1694
1697
1689
1733
1718
1713
1866
2480
3568
3551
2946
2298
1858
1665
1613
1607
1632
1643
1680
1710
1712
1717
1731
1807
1830
1786
1808
1783
1807
1837
1890
1920
1897
1947
1985
2076
2068
2002
1931
1838
1786
1771
1709
1702
1665
1649
1685
1694
1713
1725
1744
1742
1760
1808
1759
1759
1778
1755
1804
1791
1811
1835
1769
1793
1804
1791
1761
1750
1825
1870
1883
1946
1989
1975
1885
1844
1808
1745
1770
1746
1776
1806
1799
1807
1794
1821
1839
1835
1856
1797
1838
2121
2991
4095
3759
2853
2214
1855
1717
1670
1675
1712
1701
1710
1733
1773
1808
1777
1823
1840
1869
1881
1862
1895
1898
1933
1936
1919
1989
2039
2091
2098
2037
1981
1859
1788
1786
1759
1730
1714
1741
1763
1754
1767
1771
1789
1813
1808
1856
1814
1831
1860
1835
1867
1841
1841
1869
1836
1805
1791
1822
1883
1889
1961
1913
1964
2001
1933
1863
1797
1760
1776
1766
1782
1787
1815
1817
1791
1813
1810
1789
1808
1777
1794
1872
2390
3392
3632
3276
2525
2032
1776
1642
1648
1645
1663
1709
1728
1777
1787
1761
1746
1750
1856
1821
1817
1856
1846
1874
1872
1939
1979
1987
2059
2037
2038
1959
1840
1782
1717
1686
1712
1666
1652
1641
1674
1713
1711
1728
1713
1718
1732
1732
1774
1773
1719
1739
1743
1773
1758
1739
1735
1744
1795
1793
1803
1856
1909
1939
1899
1770
1682
1653
1705
1712
1698
1725
1730
1769
1735
1732
1769
1726
1754
1739
1713
1843
2384
3235
3169
2943
2373
1904
1739
1680
1632
1595
1617
1694
1692
1697
1719
1728
1764
1765
1770
1822
1824
1841
1835
1849
1855
1895
1973
1987
2032
2079
2000
1927
1855
1815
1766
1721
1712
1657
1674
1712
1739
1759
1739
1761
1802
1787
1815
1777
1781
1808
1777
1794
1797
1823
1821
1805
1820
1818
1857
1893
1895
1952
1984
1941
1872
1815
1776
1731
1767
1781
1751
1782
1754
1769
1787
1809
1843
1809
1813
1788
1781
2139
2987
3516
3169
2624
2106
1809
1731
1709
1680
1715
1719
1742
1759
1743
1805
1802
1840
1838
1836
1888
1858
1872
1884
1860
1934
1979
2019
2059
2062
2044
1981
1899
1835
1779
1775
1734
1743
1731
1737
1730
1694
1746
1779
1783
1817
1798
1811
1813
1801
1819
1839
1837
1838
1798
1793
1799
1823
1842
1859
1904
1922
1991
1977
1898
1840
1797
1775
1777
1763
1822
1791
1749
1753
1764
1790
1783
1786
1798
1776
1808
1954
2655
3718
3642
2945
2257
1892
1714
1621
1654
1665
1677
1716
1725
1776
1755
1766
1799
1815
1855
1838
1840
1846
1851
1913
1931
1969
2027
2045
2128
2093
2029
1978
1882
1815
1751
1739
1726
1685
1721
1719
1728
1754
1758
1782
1778
1793
1808
1767
1790
1773
1787
1803
1791
1789
1745
1781
1789
1802
1838
1840
1878
1889
1875
1926
1962
1962
1895
1825
1817
1766
1763
1771
1769
1766
1747
1791
1782
1771
1795
1781
1808
1808
1745
1872
2405
3470
3799
3162
2439
1968
1713
1647
1630
1663
1649
1675
1684
1677
1733
1746
1779
1783
1766
1792
1776
1780
1806
1840
1897
1886
1920
1967
1983
2032
2003
1943
1854
1768
1737
1707
1707
1716
1667
1683
1698
1730
1765
1765
1796
1767
1767
1766
1772
1807
1796
1823
1815
1782
1808
1797
1839
1787
1758
1775
1790
1838
1849
1848
1917
1930
1983
1955
1872
1840
1791
1797
1797
1755
1778
1763
1777
1768
1786
1834
1819
1834
1824
1807
1825
1965
2672
3710
3709
3050
2322
1949
1753
1673
1686
1668
1680
1699
1698
1737
1735
1767
1759
1744
1803
1814
1826
1822
1827
1889
1895
1923
1947
1962
2031
2033
2027
1927
1834
1808
1744
1708
1680
1645
1666
1656
1683
1697
1703
1762
1737
1742
1745
1735
1762
1758
1761
1744
1730
1758
1742
1769
1776
1754
1777
1764
1781
1795
1792
1861
1881
1967
1939
1844
1793
1727
1750
1757
1738
1747
1713
1744
1749
1713
1755
1750
1771
1789
1763
1755
1789
2206
3063
3437
3175
2559
2022
1773
1659
1627
1614
1631
1678
1679
1712
1710
1731
1741
1744
1761
1765
1799
1825
1827
1861
1843
1905
1934
1990
2029
2023
2030
1963
1877
1856
1751
1695
1694
1700
1703
1689
1693
1700
1701
1733
1744
1776
1763
1772
1783
1759
1797
1788
1787
1799
1774
1810
1828
1825
1840
1826
1842
1874
1870
1945
1934
1968
1952
1883
1831
1772
1776
1779
1779
1803
1779
1793
1785
1774
1792
1792
1814
1821
1787
1791
1901
2494
3536
3653
3057
2340
1948
1756
1668
1677
1670
1708
1706
1739
1770
1747
1776
1788
1801
1840
1834
1849
1846
1853
1934
1939
1993
1987
2019
2093
2101
2073
2004
1914
1846
1785
1778
1746
1732
1781
1744
1767
1783
1797
1830
1805
1808
1826
1826
1839
1825
1843
1827
1823
1857
1843
1878
1871
1840
1875
1869
1870
1846
1872
1916
1935
1987
2015
1967
1906
1845
1814
1801
1765
1798
1776
1811
1809
1791
1827
1796
1812
1815
1813
1840
1808
1952
2555
3664
3909
3130
2408
1974
1735
1677
1643
1674
1706
1721
1745
1741
1771
1771
1758
1819
1811
1808
1815
1826
1863
1874
1931
1962
1979
2032
2068
2094
2041
1965
1904
1817
1771
1733
1699
1730
1710
1771
1754
1745
1780
1745
1779
1794
1805
1826
1805
1827
1815
1794
1819
1804
1792
1787
1787
1823
1771
1792
1797
1793
1847
1856
1881
1891
1942
1949
1891
1840
1818
1777
1786
1754
1755
1752
1759
1788
1799
1800
1777
1781
1818
1797
1771
1822
2157
3158
3956
3539
2710
2131
1814
1663
1648
1624
1645
1674
1674
1727
1735
1744
1761
1774
1793
1794
1813
1827
1840
1882
1911
1907
1948
1955
2022
2059
1999
1979
1886
1841
1764
1722
1730
1680
1687
1701
1701
1723
1717
1736
1745
1747
1769
1744
1778
1766
1773
1799
1780
1785
1766
1754
1782
1777
1790
1753
1747
1793
1791
1840
1829
1841
1887
1873
1932
1903
1818
1777
1751
1745
1714
1695
1712
1709
1731
1742
1697
1722
1735
1767
1730
1685
1719
1910
2678
3502
3387
2837
2160
1808
1640
1566
1553
1557
1591
1595
1631
1674
1677
1698
1723
1742
1757
1753
1789
1813
1840
1871
1851
1911
1957
1970
2023
2032
2023
1919
1830
1803
1731
1712
1673
1648
1670
1670
1728
1731
1718
1714
1715
1773
1759
1755
1762
1739
1746
1761
1764
1766
1768
1776
1757
1761
1779
1776
1815
1822
1858
1929
1958
1979
1898
1811
1789
1749
1775
1764
1726
1744
1719
1759
1728
1776
1812
1811
1810
1823
1779
1904
2429
3486
3568
3061
2423
1937
1746
1659
1633
1661
1678
1685
1703
1719
1762
1764
1786
1779
1791
1805
1782
1835
1840
1854
1903
1910
1975
2013
2021
2056
2026
1963
1855
1789
1749
1712
1706
1697
1703
1739
1744
1767
1744
1743
1776
1776
1806
1793
1803
1840
1785
1800
1802
1812
1855
1823
1826
1819
1815
1851
1866
1917
1936
1969
1983
1906
1840
1775
1753
1776
1763
1767
1758
1776
1803
1782
1799
1795
1815
1823
1782
1783
1887
2419
3516
3747
3173
2439
2001
1782
1680
1676
1680
1689
1691
1687
1731
1749
1773
1818
1797
1840
1857
1822
1835
1861
1892
1915
1953
2000
2014
2069
2091
2059
1986
1863
1805
1748
1719
1739
1710
1709
1696
1728
1773
1749
1776
1774
1763
1808
1801
1823
1817
1840
1841
1817
1821
1813
1825
1829
1808
1833
1846
1866
1906
1935
1999
1986
1936
1872
1803
1789
1794
1778
1776
1750
1808
1786
1770
1798
1781
1799
1795
1776
1771
1826
2386
3495
3966
3280
2457
1989
1734
1636
1633
1613
1634
1664
1700
1744
1719
1745
1749
1781
1793
1789
1834
1823
1829
1891
1893
1933
1958
2002
2052
2062
2021
1935
1851
1804
1712
1695
1687
1686
1703
1679
1710
1680
1712
1746
1759
1761
1730
1741
1759
1749
1792
1792
1781
1802
1777
1808
1781
1789
1814
1811
1855
1872
1900
1920
1863
1809
1748
1744
1773
1751
1776
1741
1718
1747
1749
1765
1755
1755
1778
1750
1760
1839
2256
3248
3795
3381
2592
2043
1739
1610
1625
1645
1658
1691
1677
1712
1705
1724
1758
1744
1789
1789
1819
1838
1835
1895
1905
1915
1961
2000
2044
2019
1984
1929
1842
1793
1734
1703
1701
1687
1703
1695
1697
1712
1712
1728
1723
1718
1727
1744
1783
1754
1751
1758
1750
1796
1748
1759
1757
1776
1855
1827
1840
1884
1901
1889
1777
1727
1711
1666
1712
1703
1702
1707
1698
1738
1734
1728
1741
1746
1767
1737
1708
1872
2448
3382
3438
3013
2341
1871
1691
1589
1562
1610
1603
1648
1648
1651
1679
1686
1727
1721
1718
1760
1767
1808
1839
1860
1885
1881
1950
2001
2077
2026
1936
1904
1827
1760
1732
1688
1711
1703
1706
1726
1697
1715
1722
1750
1751
1729
1772
1785
1787
1796
1785
1802
1780
1782
1806
1781
1829
1829
1862
1909
1947
1999
1966
1904
1851
1808
1803
1735
1727
1746
1771
1783
1760
1749
1794
1802
1802
1805
1814
1783
1819
2306
3279
3649
3201
2511
2026
1765
1674
1678
1674
1683
1675
1735
1757
1771
1786
1790
1792
1825
1810
1854
1841
1867
1902
1921
1984
1999
2042
2086
2071
2083
2019
1907
1831
1777
1776
1747
1729
1744
1735
1774
1776
1765
1796
1809
1829
1823
1837
1843
1815
1861
1840
1843
1840
1828
1855
1831
1872
1914
1920
1985
2007
2002
1919
1853
1818
1798
1778
1771
1766
1798
1797
1805
1833
1797
1809
1807
1807
1840
1808
1843
2111
2978
3969
3646
2849
2209
1857
1681
1634
1648
1658
1694
1711
1712
1766
1761
1776
1806
1830
1849
1822
1840
1890
1893
1931
1968
1999
2010
2045
2108
2039
1983
1892
1798
1782
1734
1719
1717
1707
1745
1742
1738
1747
1774
1783
1749
1774
1776
1780
1797
1788
1797
1813
1808
1845
1815
1817
1835
1845
1883
1894
1929
1968
1968
1949
1840
1791
1778
1779
1790
1783
1808
1807
1790
1799
1799
1798
1822
1831
1845
1800
1753
1959
2667
3835
3885
3089
2349
1899
1705
1641
1615
1607
1600
1654
1661
1696
1726
1711
1750
1774
1799
1810
1817
1842
1815
1861
1903
1934
1969
1984
2047
2054
1968
1889
1786
1757
1707
1680
1695
1669
1673
1678
1680
1736
1725
1715
1741
1751
1762
1767
1766
1776
1781
1813
1806
1812
1809
1799
1807
1790
1834
1867
1881
1930
1939
1959
1922
1841
1802
1762
1786
1803
1765
1776
1775
1776
1776
1786
1811
1775
1808
1808
1769
1767
1880
2518
3546
3610
3094
2346
1894
1694
1595
1588
1573
1603
1616
1634
1695
1691
1731
1749
1739
1750
1738
1772
1808
1838
1872
1849
1890
1937
1968
2011
1977
1974
1915
1790
1744
1675
1694
1690
1666
1670
1661
1709
1713
1717
1744
1732
1766
1778
1757
1788
1776
1776
1761
1760
1782
1776
1799
1792
1760
1793
1782
1821
1872
1923
1908
1825
1781
1770
1718
1738
1712
1724
1710
1689
1740
1701
1718
1748
1755
1750
1744
1739
1763
2011
2832
3510
3226
2684
2091
1813
1616
1587
1627
1645
1670
1667
1712
1714
1730
1777
1787
1776
1776
1758
1798
1808
1855
1872
1889
1960
1983
2032
2064
2031
1968
1871
1814
1778
1732
1728
1680
1686
1710
1712
1744
1727
1727
1739
1758
1808
1791
1811
1839
1821
1857
1817
1835
1858
1835
1826
1815
1860
1876
1882
1959
2005
2026
1951
1823
1803
1776
1776
1786
1759
1785
1763
1791
1787
1778
1808
1829
1851
1840
1791
1879
2214
3186
3954
3437
2693
2103
1839
1735
1682
1691
1681
1680
1691
1709
1778
1785
1819
1838
1824
1833
1823
1853
1856
1878
1936
1930
1955
2000
2033
2081
2035
1987
1914
1815
1793
1728
1714
1733
1741
1767
1743
1760
1761
1782
1806
1776
1802
1810
1798
1829
1808
1810
1782
1774
1808
1798
1820
1819
1808
1857
1887
1908
1919
1968
2015
1918
1854
1808
1762
1763
1744
1763
1753
1758
1805
1756
1776
1780
1791
1817
1815
1796
1802
2000
2814
3919
3830
2943
2238
1885
1701
1675
1647
1601
1651
1677
1729
1734
1744
1788
1792
1817
1815
1808
1823
1813
1858
1883
1901
1949
1975
2017
2054
2025
2000
1922
1870
1756
1698
1711
1667
1680
1684
1690
1730
1717
1761
1770
1750
1763
1762
1779
1767
1777
1815
1783
1803
1795
1761
1789
1783
1807
1825
1831
1857
1878
1927
1943
1888
1847
1796
1785
1762
1758
1775
1769
1808
1775
1757
1765
1754
1819
1795
1795
1821
1772
1885
2341
3403
3909
3374
2592
2070
1763
1669
1631
1663
1664
1659
1695
1712
1738
1757
1759
1806
1811
1833
1827
1818
1863
1890
1924
1943
1954
2000
2006
2067
2014
1931
1887
1801
1744
1712
1680
1680
1641
1642
1616
1609
1644
1647
1691
1721
1683
1696
1680
1709
1728
1725
1730
1711
1737
1728
1735
1749
1759
1790
1797
1824
1915
1882
1818
1753
1714
1723
1686
1710
1694
1713
1718
1687
1721
1723
1725
1758
1747
1772
1734
1776
2128
2971
3504
3241
2625
2064
1741
1623
1581
1591
1644
1617
1678
1698
1695
1737
1734
1749
1726
1727
1761
1745
1803
1824
1858
1919
1914
1971
2003
2009
1999
1910
1870
1794
1738
1751
1717
1717
1696
1693
1717
1697
1729
1738
1760
1804
1775
1774
1749
1755
1803
1797
1808
1793
1805
1811
1822
1862
1873
1894
1926
1962
1995
1939
1837
1795
1745
1771
1762
1730
1735
1728
1753
1731
1735
1785
1743
1774
1770
1730
1744
1951
2702
3603
3366
2763
2106
1809
1655
1636
1680
1649
1691
1687
1712
1754
1725
1755
1754
1751
1797
1794
1818
1828
1840
1861
1874
1943
1963
2016
2071
2035
2015
1952
1865
1808
1761
1745
1732
1734
1755
1750
1781
1778
1763
1783
1759
1798
1799
1823
1855
1819
1834
1843
1859
1863
1837
1872
1886
1893
1924
1962
2064
2016
1939
1893
1838
1833
1811
1811
1825
1809
1807
1809
1802
1837
1837
1837
1837
1796
1797
1929
2559
3767
4007
3249
2461
2015
1781
1707
1711
1677
1702
1717
1746
1785
1777
1798
1801
1793
1822
1819
1857
1868
1886
1918
1911
1969
1993
2015
2042
2010
2005
1943
1887
1809
1754
1754
1742
1715
1725
1699
1734
1741
1758
1792
1791
1807
1801
1799
1839
1808
1823
1791
1776
1801
1776
1818
1810
1844
1869
1872
1909
1966
1947
1903
1790
1759
1742
1745
1775
1730
1753
1749
1754
1786
1773
1809
1818
1820
1801
1754
1891
2497
3677
3963
3179
2432
1939
1718
1646
1623
1648
1618
1648
1685
1679
1731
1743
1760
1777
1761
1797
1793
1838
1874
1862
1901
1910
1968
2011
2023
2046
1980
1920
1866
1786
1744
1710
1697
1710
1699
1723
1707
1712
1764
1754
1777
1764
1773
1793
1798
1798
1815
1817
1811
1773
1792
1776
1802
1841
1822
1892
1906
1942
1931
1849
1807
1744
1728
1723
1728
1761
1744
1735
1718
1715
1762
1754
1744
1791
1755
1735
1881
2487
3466
3497
3039
2313
1870
1680
1591
1613
1605
1623
1651
1658
1691
1699
1698
1739
1742
1776
1777
1783
1817
1808
1867
1862
1906
1934
1939
2006
1997
1937
1884
1799
1769
1738
1692
1690
1674
1697
1686
1706
1725
1723
1753
1734
1743
1771
1770
1767
1747
1776
1822
1777
1764
1759
1797
1840
1813
1841
1856
1907
1970
1952
1915
1831
1747
1744
1738
1754
1725
1714
1769
1748
1794
1759
1753
1797
1760
1778
1744
1820
2327
3273
3525
3082
2431
1963
1744
1652
1619
1649
1663
1664
1710
1712
1727
1757
1755
1781
1771
1780
1803
1801
1850
1861
1891
1934
1954
2031
2061
2041
2021
1937
1879
1791
1742
1728
1707
1730
1738
1718
1769
1731
1734
1759
1781
1810
1803
1836
1841
1825
1846
1815
1840
1829
1799
1819
1834
1894
1906
1932
1954
1998
1984
1895
1794
1778
1750
1775
1756
1774
1799
1802
1831
1817
1808
1810
1815
1853
1830
1808
1952
2559
3713
3829
3110
2393
1953
1771
1680
1653
1675
1651
1687
1712
1748
1778
1751
1801
1809
1805
1842
1837
1866
1877
1898
1934
1949
2026
2061
2082
2083
2015
1943
1862
1829
1793
1731
1755
1753
1762
1767
1749
1766
1750
1757
1792
1783
1802
1811
1814
1827
1814
1851
1829
1813
1838
1818
1829
1840
1883
1903
1911
1982
1993
1962
1881
1805
1808
1782
1787
1813
1792
1787
1759
1776
1803
1775
1793
1783
1794
1803
1810
2064
2853
3955
3823
2913
2256
1853
1691
1650
1632
1664
1654
1671
1712
1705
1766
1758
1759
1797
1781
1815
1826
1837
1854
1850
1919
1943
1984
2047
2039
2017
1965
1889
1821
1749
1733
1696
1691
1712
1710
1744
1718
1711
1736
1722
1763
1745
1771
1811
1811
1813
1812
1801
1803
1773
1781
1770
1791
1861
1871
1882
1904
1919
1949
1920
1867
1769
1729
1757
1755
1775
1745
1748
1776
1757
1761
1745
1745
1767
1777
1792
1760
1934
2640
3503
3472
2927
2252
1856
1661
1648
1655
1631
1636
1654
1695
1684
1709
1742
1749
1776
1783
1811
1838
1808
1841
1866
1895
1919
1941
2003
1995
1986
1953
1874
1831
1770
1744
1696
1659
1680
1680
1691
1706
1682
1720
1722
1723
1719
1686
1726
1765
1765
1774
1758
1751
1767
1783
1769
1778
1842
1821
1853
1920
1907
1891
1808
1773
1743
1725
1763
1739
1702
1696
1703
1738
1744
1751
1776
1786
1798
1757
1769
2085
2895
3574
3215
2653
2106
1808
1712
1680
1662
1655
1659
1719
1750
1751
1743
1739
1796
1785
1787
1808
1831
1854
1857
1892
1923
1937
2010
2046
2064
2043
1978
1936
1872
1783
1744
1728
1749
1718
1735
1749
1744
1776
1785
1790
1787
1803
1822
1776
1789
1838
1821
1845
1834
1830
1826
1825
1834
1846
1872
1901
1913
2001
1975
1904
1844
1791
1790
1783
1803
1798
1757
1786
1786
1787
1791
1800
1845
1809
1793
1773
1827
2194
3119
3826
3285
2557
2062
1806
1713
1696
1679
1734
1717
1733
1760
1766
1799
1796
1823
1840
1847
1878
1835
1847
1887
1898
1948
1968
2002
2053
2075
2064
1973
1922
1874
1802
1782
1728
1726
1749
1751
1785
1773
1774
1761
1745
1791
1791
1831
1847
1792
1813
1822
1840
1858
1821
1828
1819
1818
1827
1823
1890
1946
1969
2025
1964
1909
1851
1813
1790
1767
1782
1777
1799
1805
1795
1808
1798
1833
1798
1777
1818
1791
1879
2373
3430
4014
3313
2516
2025
1739
1677
1623
1650
1680
1680
1725
1729
1755
1773
1770
1808
1776
1794
1813
1811
1871
1875
1897
1953
1974
2031
2064
2032
2002
1937
1899
1813
1757
1739
1708
1715
1698
1694
1744
1727
1758
1745
1743
1772
1786
1813
1781
1782
1802
1787
1819
1789
1801
1819
1823
1823
1806
1808
1805
1789
1856
1872
1935
1946
1936
1945
1871
1798
1792
1741
1752
1757
1785
1785
1726
1756
1751
1782
1799
1765
1779
1770
1779
1899
2447
3597
3859
3153
2395
1938
1723
1630
1627
1648
1648
1658
1661
1699
1727
1712
1757
1762
1773
1792
1773
1793
1815
1851
1871
1901
1943
1974
2020
2041
1971
1920
1808
1777
1755
1698
1717
1680
1681
1691
1700
1733
1712
1728
1761
1747
1792
1776
1779
1783
1774
1797
1776
1785
1797
1776
1807
1807
1824
1802
1786
1857
1867
1882
1931
1933
1934
1860
1794
1767
1728
1756
1746
1757
1759
1744
1754
1749
1752
1767
1790
1847
1777
1749
1931
2559
3423
3307
2854
2215
1821
1702
1650
1614
1631
1616
1686
1670
1682
1700
1707
1745
1712
1764
1792
1746
1777
1808
1840
1863
1876
1951
1967
1991
2005
1955
1917
1825
1771
1725
1680
1691
1693
1717
1683
1645
1690
1700
1728
1734
1734
1755
1744
1766
1751
1735
1778
1761
1790
1795
1765
1791
1792
1803
1808
1808
1906
1935
1936
1895
1826
1797
1751
1742
1776
1716
1733
1724
1746
1750
1743
1779
1773
1809
1811
1763
1879
2282
3238
3579
3104
2479
2002
1776
1694
1679
1715
1706
1719
1751
1757
1776
1761
1805
1838
1809
1834
1840
1851
1870
1889
1929
1919
1972
2033
2064
2096
2041
1995
1927
1855
1841
1781
1759
1770
1751
1794
1794
1796
1803
1802
1855
1835
1854
1843
1833
1840
1831
1852
1846
1855
1878
1830
1872
1879
1883
1922
1959
2027
1968
1873
1855
1795
1778
1790
1776
1778
1778
1809
1808
1776
1812
1798
1809
1825
1776
1798
1943
2641
3782
3831
3090
2347
1932
1751
1653
1642
1623
1664
1689
1703
1759
1730
1747
1783
1794
1809
1806
1843
1860
1836
1890
1892
1939
1983
2022
2096
2071
2027
1966
1869
1798
1728
1739
1718
1712
1742
1719
1735
1761
1731
1771
1767
1776
1772
1749
1778
1761
1783
1780
1763
1792
1776
1827
1837
1837
1885
1927
1968
1904
1827
1807
1766
1783
1775
1731
1773
1742
1756
1753
1741
1757
1739
1767
1776
1706
1803
2183
3203
3838
3354
2611
2030
1737
1627
1574
1629
1619
1658
1694
1712
1733
1714
1744
1758
1749
1775
1762
1774
1830
1840
1901
1888
1936
1969
1983
2002
1949
1893
1856
1725
1676
1633
1617
1648
1627
1657
1651
1669
1681
1690
1709
1685
1727
1711
1694
1732
1717
1741
1744
1755
1820
1815
1839
1840
1888
1937
1857
1817
1759
1712
1729
1721
1754
1756
1745
1742
1741
1770
1729
1716
1766
1757
1728
1763
2158
3056
3313
3071
2551
2017
1772
1644
1645
1629
1621
1664
1669
1710
1712
1712
1750
1741
1775
1780
1776
1823
1841
1857
1872
1922
1968
1994
2034
2042
1986
1941
1857
1808
1754
1703
1712
1680
1694
1703
1709
1746
1755
1781
1772
1750
1779
1791
1799
1798
1792
1795
1791
1840
1870
1898
1939
1936
1957
1902
1834
1815
1781
1733
1738
1725
1786
1783
1787
1776
1770
1819
1805
1801
1767
1737
1903
2527
3458
3307
2901
2326
1910
1744
1694
1681
1711
1697
1718
1740
1766
1786
1761
1801
1791
1793
1827
1824
1847
1872
1885
1936
1945
1989
2035
2045
2046
1962
1909
1847
1781
1770
1713
1719
1729
1709
1723
1716
1755
1776
1776
1808
1791
1807
1809
1815
1827
1805
1830
1859
1889
1903
1914
1969
2005
1948
1905
1800
1807
1775
1745
1748
1744
1759
1781
1786
1792
1774
1797
1835
1824
1791
1877
2458
3495
3706
3197
2443
1981
1751
1665
1669
1669
1684
1679
1698
1744
1730
1746
1776
1785
1820
1808
1854
1861
1873
1939
1936
1971
1990
2012
2074
2034
2007
1931
1808
1762
1712
1719
1744
1729
1735
1712
1746
1735
1751
1797
1776
1790
1791
1790
1822
1819
1834
1779
1791
1869
1842
1847
1888
1913
1935
1877
1855
1814
1774
1753
1735
1750
1766
1742
1781
1755
1758
1766
1775
1788
1723
1744
1983
2739
3793
3664
2928
2204
1802
1664
1595
1597
1616
1611
1680
1680
1724
1745
1756
1775
1775
1830
1807
1808
1845
1879
1924
1931
1942
2017
2031
2071
2027
1961
1862
1772
1775
1723
1681
1694
1697
1711
1722
1744
1759
1723
1758
1759
1758
1797
1762
1767
1761
1762
1791
1801
1819
1811
1814
1846
1872
1921
1959
1901
1822
1746
1761
1742
1742
1766
1754
1781
1776
1744
1776
1771
1763
1773
1773
1775
1765
2161
3100
3545
3247
2581
2006
1738
1603
1579
1567
1609
1631
1634
1693
1693
1695
1711
1733
1761
1728
1760
1787
1815
1887
1877
1937
1949
1969
1995
1981
1984
1901
1782
1726
1694
1694
1665
1647
1655
1645
1661
1663
1669
1693
1699
1710
1738
1766
1809
1727
1775
1778
1750
1778
1750
1777
1791
1820
1867
1893
1921
1936
1911
1845
1776
1764
1731
1721
1757
1744
1769
1729
1741
1757
1765
1789
1776
1789
1814
1773
1901
2451
3399
3536
3013
2385
1938
1759
1680
1643
1683
1680
1686
1722
1728
1762
1759
1769
1808
1777
1827
1836
1831
1875
1899
1942
1967
2000
2055
2065
2059
1988
1904
1847
1796
1782
1762
1714
1731
1719
1766
1761
1766
1792
1761
1765
1799
1813
1837
1808
1801
1806
1831
1846
1840
1839
1812
1815
1827
1850
1895
1901
1936
1975
1984
1968
1872
1808
1808
1766
1775
1771
1790
1807
1792
1807
1793
1776
1826
1810
1831
1816
1825
2067
2830
3920
3702
2891
2245
1886
1761
1683
1650
1691
1717
1741
1755
1771
1798
1806
1845
1851
1833
1837
1862
1922
