ecg_value
2027
2027
2027
2027
2027
2027
2027
2027
2027
2027
2027
2027
2027
2027
2027
2027
2027
2027
2027
2027
2027
2027
2027
2027
2027
2027
2027
2027
2027
2027
2027
2027
2027
2027
2027
2027
2027
2027
2027
2027
2027
2027
2027
2027
2027
2027
2027
2027
2027
2027
2027
2027
2027
2027
2027
2027
2027
2027
2027
2027
2027
2027
2027
2027
2027
2027
2027
2027
2027
2027
2027
2027
2027
2027
2027
2027
2027
2027
2027
2027
2027
2027
2027
2027
2027
2027
2027
2027
2027
2027
2027
2027
2027
2027
2027
2027
2027
2027
2027
2027
2027
2027
2027
2027
2027
2027
2027
2027
2027
2027
2027
2027
2027
2027
2027
2027
2027
2027
2027
2027
2027
2027
2027
2027
2027
2027
2027
2027
2027
2027
2027
2027
2027
2027
2027
2027
2027
2027
2027
2027
2027
2027
1627
1646
1624
1680
1691
1712
1738
1714
1751
1729
1734
1761
1738
1758
1755
1739
1766
1745
1826
1840
1850
1886
1838
1857
1843
1811
1828
1779
1794
1803
1813
1830
1780
1826
1802
1807
1866
1838
1898
1955
1965
1974
1872
1829
1744
1712
1705
1642
1678
1648
1642
1659
1622
1625
1453
1609
2359
3266
2635
1527
1168
1086
1264
1532
1535
1557
1595
1573
1639
1633
1651
1697
1677
1718
1703
1712
1731
1694
1725
1697
1724
1756
1749
1814
1809
1823
1817
1763
1805
1754
1746
1779
1743
1792
1770
1767
1789
1749
1784
1751
1791
1856
1815
1890
1904
1922
1900
1803
1778
1697
1664
1664
1625
1648
1620
1631
1661
1616
1561
1503
1968
2992
3120
1974
1372
1179
1289
1521
1625
1606
1625
1666
1648
1713
1713
1759
1793
1770
1835
1805
1808
1834
1793
1834
1815
1854
1917
1910
1968
1921
1925
1932
1885
1911
1881
1874
1901
1862
1903
1872
1883
1901
1869
1911
1871
1879
1934
1922
1963
1977
2020
2032
1936
1904
1830
1821
1812
1773
1806
1749
1776
1792
1758
1733
1600
1823
2631
3379
2505
1676
1446
1377
1585
1793
1787
1809
1852
1863
1924
1915
1950
1963
1938
1995
1991
2000
2005
1969
2019
2011
2026
2078
2081
2141
2121
2139
2149
2097
2096
2053
2083
2123
2086
2123
2096
2096
2101
2079
2113
2073
2082
2096
2101
2155
2159
2199
2231
2167
2130
2026
2005
1971
1897
1936
1873
1879
1888
1872
1888
1737
1783
2264
3211
3281
2144
1623
1461
1344
1629
1780
1807
1820
1813
1870
1870
1906
1907
1886
1921
1883
1914
1904
1851
1893
1882
1899
1920
1923
1979
1973
1986
1987
1939
1985
1936
1919
1920
1895
1941
1902
1919
1930
1885
1921
1870
1867
1890
1909
1968
1939
1999
2032
1991
1946
1840
1795
1743
1679
1719
1674
1685
1679
1653
1696
1600
1513
1801
2614
3431
2393
1457
1187
1088
1375
1554
1603
1616
1598
1655
1634
1683
1697
1693
1729
1696
1733
1728
1697
1728
1689
1712
1729
1712
1792
1791
1829
1833
1802
1815
1765
1771
1757
1727
1759
1730
1771
1776
1751
1790
1735
1748
1742
1727
1810
1786
1851
1870
1856
1855
1757
1710
1646
1590
1584
1535
1570
1535
1530
1584
1535
1471
1423
1776
2722
3184
2093
1340
1099
1135
1387
1513
1523
1523
1555
1535
1614
1600
1602
1677
1664
1709
1711
1689
1724
1681
1711
1712
1710
1769
1760
1801
1819
1797
1810
1756
1775
1751
1740
1776
1751
1776
1777
1776
1821
1786
1791
1776
1745
1777
1776
1849
1856
1854
1936
1919
1924
1854
1790
1776
1712
1727
1707
1680
1723
1680
1715
1711
1639
1584
1803
2672
3316
2302
1585
1329
1278
1527
1662
1708
1675
1728
1751
1761
1811
1785
1837
1851
1843
1898
1852
1898
1895
1882
1920
1913
1975
1991
2005
2059
2026
2054
2029
2003
2044
2007
2039
2054
2038
2095
2064
2096
2081
2064
2096
2071
2107
2099
2119
2183
2158
2223
2241
2234
2204
2099
2066
2018
1987
1995
1950
1968
1950
1947
1983
1874
1823
2042
2761
3699
2699
1884
1589
1437
1591
1793
1867
1867
1872
1931
1917
1946
1951
1949
1989
1962
2002
1969
1973
2000
1955
1998
2000
2000
2059
2057
2107
2079
2064
2076
2006
2037
2017
2000
2014
1972
2006
2000
1993
2005
1961
1971
1971
1959
1998
1983
2042
2046
2079
2132
2093
2058
1938
1871
1867
1783
1804
1749
1735
1764
1723
1754
1711
1587
1859
2554
3435
2585
1585
1315
1158
1326
1571
1635
1664
1629
1693
1696
1701
1762
1729
1763
1761
1744
1770
1737
1771
1738
1735
1781
1767
1821
1834
1844
1855
1818
1843
1820
1790
1807
1770
1808
1791
1777
1813
1765
1810
1797
1782
1801
1757
1795
1810
1826
1859
1875
1931
1886
1795
1751
1647
1664
1616
1593
1600
1535
1591
1563
1535
1523
1377
1652
2398
3222
2405
1371
1091
992
1232
1475
1457
1495
1492
1505
1567
1535
1591
1584
1591
1635
1615
1649
1628
1639
1655
1619
1670
1669
1701
1760
1739
1776
1740
1729
1747
1695
1712
1715
1731
1758
1712
1766
1739
1739
1770
1739
1766
1747
1740
1788
1786
1843
1851
1885
1925
1872
1855
1766
1723
1728
1664
1695
1651
1664
1695
1659
1695
1622
1532
1829
2614
3375
2367
1581
1360
1241
1525
1664
1689
1710
1698
1748
1744
1762
1810
1797
1846
1835
1854
1872
1835
1895
1856
1863
1907
1882
1947
1954
1966
1990
1947
1957
1919
1917
1936
1906
1964
1942
1953
1985
1966
1985
1968
1967
1999
1981
2026
2026
2064
2105
2124
2184
2181
2151
2109
2007
2015
1962
1968
1971
1929
1965
1942
1961
1949
1802
1947
2484
3570
3139
2043
1703
1505
1535
1808
1877
1920
1914
1934
1955
1948
2000
1999
1994
2023
2000
2046
2000
2001
2017
1993
2035
2029
2059
2098
2083
2122
2111
2093
2087
2031
2063
2019
2016
2031
1998
2031
2011
2017
2013
1987
2026
1984
1994
2032
2023
2090
2103
2144
2142
2042
2006
1903
1878
1863
1808
1838
1783
1786
1808
1775
1758
1601
1791
2480
3365
2790
1743
1387
1259
1250
1582
1669
1686
1706
1680
1731
1723
1758
1773
1745
1791
1760
1747
1761
1719
1759
1755
1761
1795
1785
1855
1831
1851
1870
1819
1840
1791
1792
1808
1780
1815
1791
1806
1823
1791
1839
1797
1799
1808
1792
1872
1856
1872
1938
1936
1939
1851
1777
1731
1685
1694
1633
1633
1641
1607
1648
1616
1580
1487
1671
2439
3286
2550
1527
1147
1072
1226
1501
1567
1508
1564
1563
1595
1617
1606
1664
1648
1663
1680
1649
1699
1659
1669
1675
1648
1712
1701
1734
1769
1739
1771
1719
1712
1712
1685
1724
1678
1697
1717
1685
1725
1706
1717
1731
1693
1730
1693
1746
1781
1759
1850
1853
1872
1845
1738
1726
1660
1647
1635
1594
1623
1589
1613
1627
1595
1535
1491
1933
2896
3166
2042
1350
1169
1225
1487
1622
1599
1634
1655
1657
1713
1693
1739
1758
1741
1799
1778
1801
1826
1812
1855
1821
1838
1872
1862
1932
1910
1945
1950
1909
1922
1889
1899
1913
1895
1943
1911
1930
1947
1919
1956
1904
1919
1930
1904
1959
1963
1989
2032
2039
2100
2046
1996
1929
1855
1878
1818
1840
1843
1806
1839
1802
1819
1777
1667
1968
2765
3437
2400
1633
1454
1344
1618
1770
1763
1829
1805
1838
1868
1872
1931
1914
1948
1969
1962
2009
1994
2012
2015
2019
2064
2032
2090
2128
2110
2155
2118
2137
2115
2085
2114
2074
2099
2110
2096
2122
2095
2107
2096
2070
2110
2064
2081
2115
2129
2154
2157
2214
2235
2160
2132
2027
2003
1983
1940
1951
1907
1921
1926
1891
1934
1785
1829
2274
3198
3303
2173
1647
1478
1377
1667
1805
1840
1840
1854
1904
1874
1905
1936
1925
1971
1929
1933
1949
1918
1938
1917
1943
1960
1954
2018
2003
2035
2043
2014
2017
1966
1995
1974
1939
1971
1931
1966
1963
1942
1968
1931
1947
1940
1918
1963
1954
1980
2032
2027
2069
1977
1919
1841
1779
1776
1697
1715
1713
1670
1694
1651
1676
1535
1559
2105
3002
3071
1875
1267
1142
1108
1413
1535
1522
1582
1566
1604
1600
1593
1647
1617
1639
1647
1626
1660
1616
1643
1647
1627
1680
1677
1727
1745
1739
1779
1728
1734
1725
1694
1716
1675
1703
1712
1693
1743
1693
1709
1702
1677
1705
1668
1730
1746
1726
1821
1799
1808
1744
1653
1616
1518
1527
1504
1465
1488
1434
1455
1451
1426
1360
1343
1854
2815
2925
1773
1099
956
1043
1294
1425
1376
1407
1431
1442
1487
1475
1521
1518
1535
1584
1534
1579
1585
1564
1601
1563
1605
1628
1644
1709
1682
1732
1710
1685
1699
1646
1689
1682
1661
1712
1685
1725
1728
1712
1739
1709
1731
1708
1727
1811
1795
1840
1871
1867
1910
1821
1777
1728
1695
1687
1664
1686
1654
1649
1698
1642
1663
1530
1626
2326
3303
2787
1749
1367
1248
1408
1675
1676
1664
1731
1698
1763
1759
1763
1817
1793
1842
1866
1861
1897
1872
1906
1889
1893
1954
1923
1987
1995
1983
2036
1982
1984
1971
1948
1975
1952
1995
1984
1995
2027
1965
2015
2009
1984
2022
1987
2032
2080
2084
2120
2140
2204
2173
2115
2093
1990
2010
1975
1953
1999
1947
1957
1975
1969
1966
1812
1994
2641
3726
2994
1936
1675
1507
1626
1918
1923
1959
1969
1959
1999
1998
2060
2038
2035
2091
2032
2103
2073
2059
2103
2064
2101
2119
2125
2163
2159
2194
2176
2170
2176
2096
2151
2131
2098
2133
2103
2128
2129
2111
2130
2095
2126
2108
2110
2165
2132
2179
2224
2246
2274
2198
2143
2064
1996
1984
1936
1959
1921
1903
1938
1898
1935
1781
1833
2343
3291
3283
2128
1600
1459
1352
1631
1777
1791
1820
1803
1853
1840
1853
1904
1859
1905
1873
1866
1904
1844
1885
1872
1869
1922
1890
1949
1945
1943
1987
1952
1961
1929
1904
1923
1874
1914
1904
1895
1893
1871
1907
1886
1874
1898
1851
1902
1918
1921
1968
1968
2033
1999
1927
1872
1766
1778
1713
1698
1695
1658
1693
1655
1653
1664
1483
1648
2238
3218
2903
1695
1277
1087
1229
1523
1535
1584
1584
1594
1648
1616
1663
1659
1666
1700
1663
1708
1687
1664
1695
1661
1711
1687
1712
1772
1748
1811
1786
1782
1791
1727
1759
1738
1733
1771
1731
1786
1776
1772
1803
1767
1799
1770
1774
1786
1744
1828
1833
1845
1919
1903
1943
1847
1776
1755
1682
1712
1674
1653
1682
1654
1686
1656
1658
1584
1620
2254
3267
2898
1795
1327
1201
1330
1601
1671
1622
1684
1693
1706
1738
1728
1776
1781
1800
1840
1808
1856
1835
1848
1865
1838
1883
1876
1921
1954
1933
1982
1933
1922
1930
1891
1923
1909
1920
1940
1913
1974
1938
1939
1962
1917
1967
1925
1916
1929
1905
1991
1984
2003
2059
2071
2083
1985
1935
1902
1840
1841
1809
1818
1812
1791
1813
1792
1775
1693
1791
2475
3390
2655
1731
1421
1340
1511
1715
1765
1744
1806
1805
1822
1861
1853
1897
1894
1905
1933
1905
1950
1933
1938
1966
1950
1993
2004
2033
2081
2059
2096
2053
2047
2039
2003
2035
2012
2027
2043
2000
2047
2023
2011
2021
1981
2019
1993
2000
2030
2033
2079
2081
2128
2181
2142
2099
1993
1936
1915
1872
1890
1861
1858
1861
1837
1870
1787
1715
1965
2696
3533
2601
1712
1489
1312
1462
1707
1795
1811
1790
1840
1823
1841
1882
1863
1909
1891
1902
1910
1873
1913
1878
1887
1920
1919
1977
1967
1999
2029
1989
2011
1968
1968
1975
1923
1957
1937
1951
1965
1927
1958
1936
1949
1961
1919
1943
1911
1947
1997
1960
2037
2045
2077
2028
1902
1878
1810
1776
1771
1728
1747
1712
1729
1741
1687
1616
1622
2106
3071
3181
2001
1344
1168
1191
1443
1643
1616
1638
1681
1661
1719
1709
1723
1760
1735
1769
1742
1757
1758
1728
1760
1746
1773
1810
1815
1875
1858
1878
1890
1845
1859
1810
1811
1834
1795
1848
1819
1846
1852
1819
1861
1828
1825
1837
1797
1847
1852
1882
1911
1932
1994
1945
1893
1815
1730
1735
1680
1694
1686
1643
1680
1638
1663
1642
1497
1694
2342
3344
2739
1587
1252
1098
1296
1564
1571
1626
1597
1621
1648
1633
1689
1658
1689
1712
1679
1728
1710
1719
1725
1689
1734
1712
1747
1799
1791
1840
1800
1812
1814
1764
1782
1747
1765
1776
1750
1806
1767
1775
1783
1767
1809
1768
1778
1796
1794
1867
1841
1893
1936
1914
1929
1814
1754
1730
1684
1696
1664
1671
1680
1648
1682
1663
1585
1535
1883
2838
3280
2161
1455
1220
1255
1499
1619
1625
1607
1674
1655
1685
1718
1711
1771
1744
1766
1797
1765
1808
1769
1791
1820
1805
1858
1847
1901
1919
1904
1925
1879
1879
1885
1841
1875
1855
1882
1877
1847
1889
1867
1883
1877
1841
1876
1842
1890
1927
1902
1975
1967
2013
1996
1898
1872
1804
1797
1776
1754
1786
1734
1753
1775
1754
1746
1631
1899
2736
3362
2414
1647
1456
1361
1585
1776
1770
1809
1849
1824
1875
1878
1907
1923
1937
1983
1951
1968
1971
1939
1993
1983
2005
2038
2038
2119
2101
2125
2114
2089
2098
2039
2064
2071
2032
2064
2030
2046
2047
2026
2054
2025
2030
2032
2027
2091
2047
2109
2160
2159
2175
2087
2019
1957
1907
1904
1856
1867
1856
1840
1876
1839
1815
1696
1851
2559
3402
2711
1807
1493
1377
1372
1665
1776
1762
1815
1795
1835
1875
1849
1883
1863
1873
1899
1883
1899
1861
1890
1894
1889
1939
1922
1981
2001
1998
2032
1970
1969
1957
1932
1956
1933
1937
1938
1918
1958
1921
1936
1929
1899
1917
1899
1953
1981
1968
2064
2039
2065
1988
1889
1859
1786
1772
1756
1712
1738
1699
1705
1711
1685
1589
1599
2109
3054
3109
1945
1334
1179
1178
1447
1630
1587
1621
1642
1626
1682
1669
1707
1715
1711
1744
1701
1735
1735
1695
1744
1710
1745
1776
1775
1840
1820
1851
1839
1809
1829
1766
1789
1781
1764
1813
1772
1792
1807
1783
1819
1769
1797
1791
1778
1858
1835
1866
1921
1925
1942
1839
1782
1724
1669
1679
1627
1651
1631
1594
1635
1600
1616
1501
1535
2133
3128
2999
1772
1243
1135
1229
1526
1589
1565
1614
1584
1625
1635
1651
1699
1672
1723
1728
1712
1751
1715
1733
1746
1720
1773
1760
1822
1839
1838
1888
1839
1840
1830
1787
1818
1778
1808
1818
1808
1852
1808
1820
1834
1805
1843
1796
1818
1822
1841
1904
1872
1937
1962
1953
1951
1839
1805
1761
1717
1749
1697
1714
1712
1693
1744
1685
1639
1598
1937
2928
3241
2141
1493
1280
1328
1565
1686
1681
1669
1721
1690
1735
1749
1760
1808
1785
1819
1823
1802
1851
1811
1853
1855
1838
1899
1885
1931
1951
1936
1969
1919
1929
1905
1887
1936
1889
1911
1917
1905
1951
1908
1925
1940
1908
1939
1910
1930
1936
1955
2029
1997
2063
2102
2093
2087
1969
1947
1915
1870
1898
1859
1886
1880
1850
1905
1856
1782
1843
2325
3378
3061
2032
1615
1431
1473
1723
1839
1841
1841
1890
1861
1906
1910
1906
1957
1925
1958
1964
1939
1974
1937
1965
1970
1961
2015
2000
2047
2075
2043
2079
2022
2032
2015
1995
2021
1971
1998
1985
1971
2029
1984
1995
2002
1979
2009
1959
1965
1981
1998
2053
2036
2112
2130
2096
2053
1932
1909
1869
1813
1844
1808
1822
1817
1808
1840
1747
1680
1909
2613
3439
2550
1701
1426
1266
1391
1631
1745
1731
1734
1781
1766
1813
1819
1824
1845
1808
1850
1844
1823
1851
1822
1861
1865
1854
1907
1895
1962
1963
1933
1971
1904
1919
1915
1878
1920
1883
1897
1899
1889
1920
1885
1906
1901
1875
1907
1854
1871
1872
1907
1953
1927
2021
2026
1994
1950
1834
1808
1776
1728
1725
1680
1695
1692
1663
1697
1638
1563
1734
2375
3373
2724
1616
1230
1077
1276
1513
1611
1605
1611
1669
1648
1687
1687
1692
1731
1707
1739
1741
1715
1744
1700
1742
1729
1731
1786
1767
1820
1839
1835
1861
1799
1821
1791
1778
1810
1767
1807
1810
1790
1840
1795
1822
1808
1776
1810
1766
1787
1791
1816
1879
1830
1909
1931
1899
1874
1751
1733
1686
1640
1655
1616
1642
1621
1615
1643
1609
1527
1563
2031
3042
3103
1901
1279
1097
1223
1479
1595
1589
1590
1633
1599
1657
1680
1677
1733
1693
1742
1744
1735
1776
1728
1771
1762
1741
1788
1781
1838
1845
1839
1891
1826
1830
1811
1802
1839
1794
1831
1822
1806
1857
1823
1850
1843
1827
1871
1815
1842
1827
1797
1821
1786
1856
1884
1887
1946
1933
1999
1956
1855
1843
1776
1784
1761
1744
1771
1729
1752
1744
1739
1719
1616
1918
2730
3249
2272
1520
1354
1295
1535
1719
1684
1719
1719
1733
1786
1766
1808
1813
1818
1865
1832
1874
1872
1851
1888
1857
1904
1903
1903
1968
1936
1981
1967
1951
1980
1921
1936
1925
1904
1943
1918
1963
1950
1942
1973
1936
1964
1954
1941
1981
1933
1945
1941
1931
1993
2001
2066
2081
2096
2176
2107
2063
2007
1958
1963
1902
1925
1916
1903
1923
1885
1923
1875
1811
2043
2695
3461
2559
1759
1585
1403
1583
1802
1845
1866
1846
1895
1904
1909
1953
1922
1951
1962
1938
1975
1955
1968
1945
1955
1986
1958
2010
2022
2005
2070
2017
2032
2034
1984
1975
1952
1963
1954
1953
1984
1946
1973
1973
1941
1999
1947
1961
1954
1936
1947
1942
2000
1994
2026
2114
2081
2097
2026
1925
1917
1847
1841
1823
1805
1802
1779
1819
1798
1775
1715
1847
2519
3424
2795
1831
1429
1334
1345
1616
1763
1738
1787
1778
1790
1854
1820
1860
1843
1837
1892
1861
1872
1871
1846
1865
1836
1888
1885
1902
1964
1920
1964
1968
1933
1953
1906
1902
1913
1893
1919
1894
1923
1902
1895
1937
1873
1908
1887
1860
1903
1844
1877
1935
1921
1949
1990
2036
1999
1939
1872
1762
1771
1728
1669
1709
1658
1675
1678
1670
1692
1564
1667
2163
3110
3115
1783
1250
1092
1136
1495
1587
1606
1623
1613
1658
1671
1691
1698
1699
1736
1701
1750
1733
1709
1759
1730
1744
1747
1744
1789
1792
1839
1830
1836
1859
1802
1827
1799
1767
1819
1786
1794
1808
1803
1826
1792
1824
1792
1783
1808
1747
1792
1790
1810
1866
1851
1921
1946
1887
1840
1748
1729
1680
1643
1659
1606
1634
1632
1617
1657
1584
1517
1680
2343
3375
2688
1617
1220
1085
1342
1527
1589
1586
1597
1634
1602
1649
1665
1674
1715
1689
1729
1735
1718
1767
1744
1776
1761
1751
1801
1781
1857
1859
1839
1877
1823
1840
1821
1802
1827
1793
1834
1835
1821
1847
1808
1845
1843
1810
1846
1801
1830
1818
1792
1856
1856
1908
1914
1923
1984
1934
1895
1837
1771
1790
1728
1742
1727
1707
1741
1701
1731
1712
1596
1744
2314
3315
2749
1722
1442
1253
1423
1637
1664
1712
1688
1730
1738
1739
1798
1776
1819
1824
1823
1866
1839
1863
1866
1854
1895
1872
1918
1926
1948
1988
1951
1972
1954
1925
1953
1912
1937
1936
1935
1975
1935
1969
1961
1957
1993
1951
1983
1973
1955
1989
1959
2019
2046
2037
2128
2128
2167
2122
2032
2015
1936
1947
1923
1903
1932
1899
1907
1904
1895
1870
1821
2186
3039
3359
2337
1674
1534
1421
1630
1853
1834
1872
1870
1883
1929
1904
1951
1959
1939
1975
1961
1996
1971
1959
2000
1968
1999
1999
1994
2054
2037
2075
2067
2039
2065
2003
2009
1997
1970
1995
1963
1994
1975
1956
1998
1946
1981
1955
1931
1963
1904
1947
1965
1967
2015
2015
2079
2017
1927
1886
1799
1786
1743
1712
1737
1687
1711
1699
1677
1653
1524
1789
2482
3221
2506
1527
1277
1120
1173
1478
1535
1577
1559
1574
1615
1589
1630
1622
1623
1655
1613
1626
1618
1596
1625
1593
1618
1613
1607
1680
1670
1712
1692
1662
1679
1626
1652
1622
1593
1621
1585
1614
1600
1589
1617
1587
1614
1589
1581
1594
1535
1594
1607
1616
1653
1664
1725
1695
1602
1554
1455
1449
1404
1363
1390
1342
1361
1362
1335
1358
1205
1347
1911
2832
2655
1413
912
771
854
1199
1254
1286
1282
1297
1335
1302
1360
1373
1373
1408
1371
1423
1415
1388
1430
1386
1424
1422
1419
1491
1473
1535
1535
1535
1575
1524
1535
1521
1504
1535
1516
1566
1566
1565
1603
1583
1625
1609
1593
1621
1584
1617
1649
1685
1736
1718
1789
1803
1755
1706
1616
1634
1597
1535
1587
1533
1567
1571
1555
1609
1521
1472
1680
2416
3344
2446
1484
1182
1091
1395
1535
1600
1589
1600
1667
1648
1689
1696
1707
1774
1741
1787
1794
1795
1829
1795
1851
1845
1830
1897
1887
1937
1959
1954
1994
1941
1959
1938
1918
1954
1920
1965
1967
1958
2007
1967
2009
1993
1979
2017
1969
1995
1989
1983
2082
2059
2082
2125
2151
2180
2086
2054
1997
1963
1966
1896
1934
1922
1919
1970
1919
1947
1865
1845
2273
3184
3445
2251
1691
1563
1527
1830
1926
1915
1963
1941
1994
1988
1989
2053
2032
2082
2077
2081
2121
2098
2139
2145
2128
2171
2155
2195
2215
2225
2274
2253
2277
2256
2235
2262
2228
2256
2246
2234
2289
2262
2287
2279
2275
2309
2274
2303
2286
2268
2307
2305
2354
2350
2389
2452
2435
2430
2355
2288
2273
2226
2215
2211
2173
2192
2167
2176
2170
2137
2096
2243
3011
3973
2901
2060
1783
1651
1762
2000
2108
2077
2106
2117
2125
2160
2138
2166
2159
2160
2177
2134
2155
2142
2133
2158
2132
2166
2172
2155
2212
2197
2218
2192
2164
2171
2109
2121
2111
2098
2118
2079
2107
2097
2089
2119
2082
2089
2063
2039
2081
2014
2047
2081
2101
2144
2134
2170
2177
2113
2047
1947
1935
1897
1873
1882
1829
1841
1839
1821
1853
1744
1790
2221
3111
3419
2155
1493
1296
1263
1552
1680
1731
1722
1702
1751
1735
1776
1780
1762
1814
1781
1808
1808
1778
1808
1765
1787
1791
1794
1830
1822
1861
1882
1872
1883
1831
1841
1829
1798
1821
1786
1815
1803
1802
1843
1795
1820
1812
1798
1830
1785
1806
1786
1786
1869
1850
1903
1923
1936
1943
1841
1783
1737
1690
1680
1638
1649
1626
1613
1651
1613
1628
1527
1595
2189
3120
2931
1747
1237
1102
1221
1518
1585
1569
1613
1578
1617
1628
1635
1685
1648
1690
1685
1675
1731
1691
1709
1695
1685
1735
1714
1754
1773
1780
1830
1799
1823
1807
1777
1795
1743
1772
1774
1759
1791
1765
1796
1781
1775
1805
1761
1789
1777
1749
1785
1751
1787
1825
1837
1889
1888
1950
1929
1840
1817
1730
1739
1702
1679
1714
1663
1691
1681
1681
1703
1568
1648
2155
3119
2959
1797
1376
1218
1325
1607
1621
1641
1643
1651
1702
1673
1715
1733
1722
1773
1747
1775
1776
1777
1797
1773
1815
1811
1793
1853
1857
1883
1891
1875
1917
1854
1866
1840
1834
1881
1840
1874
1870
1846
1885
1850
1880
1857
1832
1871
1815
1810
1809
1808
1850
1839
1906
1904
1923
1985
1994
1996
1917
1835
1827
1782
1776
1760
1750
1779
1739
1765
1766
1737
1685
1769
2399
3295
2668
1797
1479
1358
1497
1712
1771
1745
1797
1821
1814
1859
1849
1895
1911
1917
1955
1929
1951
1942
1951
1995
1968
2006
2019
2032
2090
2080
2113
2101
2095
2121
2064
2080
2070
2053
2080
2055
2075
2065
2063
2096
2060
2077
2063
2043
2070
2014
2045
2013
2011
2096
2054
2118
2141
2160
2167
2039
2005
1940
1904
1915
1845
1872
1860
1840
1861
1819
1825
1729
1904
2586
3345
2703
1759
1463
1378
1339
1621
1755
1744
1787
1759
1799
1811
1815
1862
1806
1851
1843
1813
1856
1813
1854
1838
1819
1863
1853
1895
1907
1919
1977
1922
1959
1931
1878
1903
1867
1886
1881
1865
1907
1856
1894
1886
1852
1889
1840
1883
1849
1820
1872
1865
1911
1917
1954
2011
1971
1935
1843
1777
1771
1695
1702
1678
1648
1681
1645
1667
1643
1535
1595
1954
2845
3136
2003
1386
1173
1125
1363
1535
1590
1554
1610
1612
1607
1663
1629
1689
1690
1667
1711
1667
1685
1675
1664
1707
1658
1698
1711
1714
1776
1745
1790
1774
1741
1778
1717
1742
1727
1725
1759
1719
1763
1744
1735
1776
1728
1765
1741
1719
1757
1716
1770
1804
1792
1867
1859
1916
1871
1787
1753
1660
1671
1639
1616
1645
1587
1635
1633
1607
1647
1486
1647
2240
3187
2799
1618
1264
1118
1248
1554
1575
1602
1614
1616
1669
1643
1695
1709
1711
1750
1730
1770
1770
1763
1793
1755
1793
1794
1779
1849
1838
1885
1900
1883
1929
1869
1875
1859
1837
1872
1847
1886
1880
1862
1910
1875
1904
1888
1872
1904
1851
1883
1870
1858
1937
1931
1969
1999
2013
2064
1950
1903
1853
1808
1818
1765
1794
1773
1755
1790
1744
1773
1690
1674
2099
2960
3199
2064
1488
1361
1313
1623
1722
1702
1749
1759
1818
1835
1827
1883
1843
1889
1888
1872
1919
1883
1918
1899
1878
1927
1897
1943
1949
1968
2029
1970
2005
1982
1955
1975
1934
1950
1953
1938
1968
1931
1965
1953
1923
1954
1917
1936
1919
1894
1922
1924
1993
1986
1997
2081
2069
2064
1987
1921
1907
1841
1849
1840
1807
1838
1799
1840
1830
1782
1717
1858
2559
3489
2677
1763
1459
1346
1498
1721
1798
1747
1803
1815
1808
1865
1840
1883
1873
1871
1919
1886
1915
1915
1891
1909
1879
1942
1939
1943
2004
1984
2006
1999
1964
1997
1941
1963
1951
1926
1950
1922
1945
1955
1942
1979
1937
1962
1958
1936
1967
1930
1983
2017
1995
2095
2096
2149
2096
2000
1979
1891
1905
1877
1840
1872
1832
1863
1861
1856
1837
1728
2007
2742
3573
2719
1739
1519
1383
1469
1793
1854
1881
1887
1909
1967
1939
1985
2000
1997
2036
2002
2037
2031
2014
2058
2016
2062
2047
2064
2135
2128
2170
2170
2166
2202
2157
2173
2147
2113
2154
2111
2142
2132
2128
2174
2129
2158
2143
2131
2153
2103
2138
2178
2175
2238
2251
2301
2249
2155
2133
2022
2013
1975
1935
1961
1905
1934
1924
1923
1936
1766
1908
2474
3494
3347
1995
1496
1360
1387
1712
1822
1836
1827
1840
1883
1840
1898
1909
1890
1932
1891
1915
1913
1888
1898
1887
1920
1904
1911
1966
1951
2019
2022
1998
2035
1981
1986
1984
1943
1959
1931
1941
1936
1941
1968
1919
1949
1918
1878
1929
1867
1903
1950
1925
1963
1970
2006
1969
1892
1840
1730
1742
1685
1643
1680
1621
1623
1630
1595
1610
1469
1573
2078
3045
3018
1714
1218
1036
1083
1411
1469
1487
1501
1490
1527
1499
1570
1535
1555
1599
1535
1602
1581
1535
1603
1535
1589
1581
1535
1591
1610
1653
1637
1657
1679
1617
1638
1616
1583
1631
1586
1611
1619
1615
1647
1613
1648
1619
1613
1655
1600
1647
1638
1651
1709
1683
1744
1771
1738
1706
1595
1585
1526
1492
1521
1466
1490
1472
1446
1499
1465
1371
1414
1856
2832
2882
1744
1161
1000
1118
1328
1456
1456
1451
1530
1504
1533
1563
1582
1632
1609
1648
1641
1627
1648
1632
1692
1678
1675
1738
1725
1786
1822
1789
1853
1857
1893
1872
1862
1901
1859
1904
1921
1907
1953
1916
1950
1939
1937
1968
1930
1951
1943
1936
2003
2000
2033
2094
2109
2154
2071
2029
1974
1920
1928
1879
1902
1878
1862
1889
1859
1899
1830
1750
2018
2781
3543
2487
1701
1527
1408
1687
1833
1835
1872
1872
1927
1919
1914
1974
1947
1991
1999
2000
2033
1997
2015
2009
1998
2032
2003
2037
2078
2081
2139
2112
2134
2125
2096
2112
2064
2096
2091
2069
2109
2064
2105
2100
2095
2127
2070
2095
2085
2064
2085
2039
2099
2137
2112
2192
2182
2227
2193
2085
2059
1980
1982
1952
1923
1939
1890
1910
1918
1901
1866
1795
2105
2859
3458
2501
1684
1519
1369
1487
1782
1805
1823
1838
1849
1903
1871
1905
1915
1905
1949
1919
1922
1902
1898
1921
1889
1929
1926
1936
1984
1980
2032
2032
2017
2038
1986
1991
1979
1962
1979
1934
1964
1966
1955
1997
1951
1997
1965
1938
1967
1916
1965
1995
1997
2017
2031
2101
2108
2043
1986
1873
1861
1824
1776
1791
1726
1755
1744
1722
1766
1680
1603
1834
2526
3490
2650
1619
1299
1159
1331
1561
1655
1639
1637
1685
1658
1697
1718
1712
1749
1709
1745
1744
1723
1738
1699
1747
1744
1714
1785
1771
1818
1825
1827
1885
1827
1838
1829
1805
1827
1791
1822
1811
1806
1835
1803
1834
1830
1811
1849
1806
1833
1822
1815
1897
1883
1906
1951
1962
1987
1890
1839
1761
1718
1716
1653
1680
1659
1645
1693
1648
1667
1587
1535
1920
2719
3325
2190
1359
1195
1119
1424
1600
1580
1621
1601
1637
1646
1641
1690
1663
1711
1707
1682
1727
1681
1711
1707
1689
1732
1685
1745
1757
1764
1822
1800
1836
1810
1787
1809
1757
1778
1776
1767
1799
1761
1805
1783
1773
1818
1774
1797
1789
1771
1801
1749
1776
1802
1817
1860
1870
1924
1935
1886
1856
1747
1744
1709
1671
1696
1645
1672
1665
1639
1694
1632
1578
1709
2310
3293
2617
1622
1312
1154
1399
1590
1647
1637
1647
1701
1670
1726
1727
1723
1779
1754
1782
1775
1765
1808
1771
1819
1814
1801
1846
1824
1882
1890
1882
1937
1894
1907
1879
1858
1887
1850
1886
1886
1867
1909
1867
1903
1895
1866
1904
1859
1885
1872
1844
1878
1839
1872
1897
1927
1958
1942
2005
2042
1961
1939
1862
1855
1834
1797
1830
1803
1809
1820
1809
1863
1790
1751
1902
2519
3419
2612
1730
1489
1343
1555
1731
1808
1807
1826
1878
1847
1904
1914
1891
1951
1932
1961
1951
1939
1975
1952
1988
1989
1985
2034
2018
2074
2083
2086
2123
2070
2078
2063
2038
2047
2016
2042
2031
2011
2053
2010
2054
2046
2019
2055
2007
2032
2009
2002
2035
2005
2074
2069
2083
2159
2159
2154
2096
1997
1971
1889
1907
1884
1859
1872
1838
1863
1866
1825
1775
1850
2402
3343
3035
1984
1487
1396
1329
1573
1792
1765
1802
1825
1810
1852
1818
1872
1867
1851
1904
1854
1870
1858
1841
1870
1841
1872
1877
1900
1943
1917
1972
1974
1937
1964
1914
1929
1907
1895
1930
1881
1892
1899
1883
1909
1858
1895
1888
1842
1877
1828
1867
1845
1823
1904
1882
1911
1975
1973
2001
1905
1854
1791
1731
1731
1658
1686
1665
1648
1683
1648
1669
1599
1555
1919
2660
3249
2208
1318
1163
1046
1327
1555
1565
1591
1570
1632
1632
1629
1671
1647
1693
1693
1679
1722
1679
1695
1697
1673
1715
1677
1724
1738
1744
1790
1767
1806
1791
1744
1776
1719
1738
1724
1712
1758
1723
1759
1757
1741
1763
1715
1765
1751
1718
1741
1697
1745
1765
1775
1827
1836
1899
1859
1781
1744
1666
1659
1616
1584
1617
1565
1594
1584
1572
1601
1485
1535
1947
2823
3071
1845
1253
1097
1107
1445
1521
1557
1563
1559
1618
1600
1641
1648
1655
1695
1665
1702
1710
1702
1744
1707
1733
1725
1715
1777
1758
1808
1829
1806
1869
1807
1829
1803
1775
1808
1776
1808
1818
1808
1850
1814
1843
1840
1811
1855
1808
1843
1823
1801
1840
1823
1879
1890
1897
1981
1961
1969
1904
1818
1821
1751
1760
1744
1724
1757
1715
1744
1735
1696
1660
1699
2269
3203
2782
1769
1375
1284
1399
1628
1716
1680
1719
1730
1735
1794
1766
1796
1815
1804
1840
1818
1856
1856
1840
1897
1851
1892
1899
1895
1938
1932
1970
1974
1956
1984
1931
1951
1935
1921
1968
1927
1965
1968
1966
1998
1964
1984
1975
1965
1990
1940
1967
1963
1973
2058
2013
2083
2133
2151
2140
2027
2001
1966
1913
1919
1870
1899
1879
1853
1894
1866
1857
1776
1930
2636
3483
2738
1791
1511
1407
1442
1735
1840
1817
1865
1851
1889
1889
1894
1920
1895
1935
1929
1927
1954
1920
1945
1946
1931
1966
1937
1998
2027
2017
2074
2034
2064
2034
2005
2025
1973
1995
1998
1973
2005
1986
2000
2011
1983
2018
1977
2000
1989
1970
1994
1964
2045
2055
2035
2117
2126
2131
2054
1951
1929
1872
1854
1833
1802
1840
1776
1805
1794
1785
1723
1715
2195
3056
3220
2114
1442
1328
1232
1427
1669
1665
1706
1712
1719
1762
1743
1769
1767
1762
1797
1753
1766
1766
1755
1793
1739
1776
1791
1761
1825
1819
1874
1883
1861
1882
1837
1845
1827
1803
1846
1806
1832
1834
1817
1856
1807
1839
1831
1805
1843
1794
1814
1795
1795
1883
1856
1906
1946
1945
1963
1839
1791
1744
1701
1708
1645
1659
1648
1626
1671
1627
1644
1535
1590
2096
2939
3009
1839
1232
1122
1110
1441
1572
1535
1595
1565
1607
1606
1600
1654
1623
1664
1674
1657
1698
1664
1673
1670
1664
1703
1665
1701
1712
1712
1776
1750
1776
1776
1737
1765
1707
1725
1733
1721
1765
1728
1759
1765
1745
1789
1737
1754
1775
1732
1765
1728
1763
1808
1811
1854
1862
1922
1936
1864
1827
1744
1731
1686
1664
1697
1648
1680
1681
1664
1708
1633
1582
1783
2479
3335
2427
1558
1296
1183
1459
1605
1653
1665
1668
1719
1702
1740
1756
1745
1806
1773
1809
1823
1805
1840
1811
1847
1847
1821
1869
1834
1894
1903
1904
1954
1904
1918
1903
1872
1907
1863
1879
1878
1866
1919
1875
1907
1900
1877
1920
1882
1897
1879
1863
1904
1870
1939
1973
1968
2061
2046
2083
2032
1935
1918
1863
1862
1843
1825
1865
1824
1853
1862
1842
1835
1752
2029
2827
3422
2433
1639
1490
1373
1568
1807
1794
1840
1853
1849
1891
1872
1903
1917
1899
1957
1925
1950
1962
1947
1968
1945
1978
1979
1968
2011
2005
2047
2064
2041
2072
2007
2023
2010
1985
2005
1973
2000
1997
1991
2031
1977
2007
1997
1978
2021
1984
2002
1984
1947
1991
1999
2045
2044
2077
2150
2119
2082
1993
1929
1917
1847
1847
1851
1813
1853
1808
1831
1830
1734
1779
2061
2887
3375
2323
1616
1393
1284
1414
1664
1765
1721
1775
1800
1782
1828
1806
1838
1840
1838
1881
1840
1846
1854
1824
1862
1839
1859
1871
1866
1922
1913
1951
1953
1936
1955
1907
1913
1907
1886
1918
1877
1910
1906
1885
1915
1879
1904
1891
1876
1902
1853
1869
1858
1852
1939
1917
1956
1997
1993
1997
1878
1840
1793
1735
1743
1694
1707
1683
1657
1709
1670
1680
1597
1659
2195
3037
3043
1854
1258
1158
1145
1466
1605
1593
1639
1615
1659
1667
1648
1711
1683
1716
1727
1699
1746
1704
1726
1724
1699
1739
1708
1747
1778
1776
1830
1808
1827
1817
1785
1808
1744
1773
1771
1745
1789
1743
1776
1771
1750
1798
1747
1761
1757
1732
1766
1718
1728
1725
1744
1811
1778
1840
1866
1853
1849
1730
1707
1682
1645
1662
1614
1616
1623
1600
1644
1601
1611
1535
1677
2352
3189
2586
1535
1181
1125
1304
1555
1601
1579
1632
1623
1655
1663
1661
1719
1687
1728
1745
1712
1775
1743
1757
1773
1776
1794
1777
1812
1834
1840
1898
1848
1899
1884
1827
1873
1831
1840
1846
1827
1872
1840
1873
1874
1859
1899
1849
1879
1869
1843
1884
1839
1840
1857
1837
1898
1909
1925
1965
1990
2046
1942
1913
1870
1787
1803
1774
1773
1772
1742
1775
1747
1775
1741
1659
1834
2374
3265
2655
1685
1456
1270
1443
1699
1712
1740
1739
1779
1789
1798
1850
1813
1872
1877
1856
1917
1888
1921
1935
1909
1951
1937
1951
1951
1975
2025
2002
2053
2057
2023
2058
1986
2005
2023
1995
2018
2013
2042
2029
2026
2076
2025
2057
2043
2019
2063
2013
2018
2033
2027
2087
2075
2128
2161
2182
2179
2044
2009
1968
1911
1935
1898
1904
1889
1856
1890
1863
1871
1786
1906
2518
3417
2950
1911
1498
1441
1369
1648
1813
1791
1833
1839
1871
1872
1876
1923
1885
1921
1936
1893
1943
1903
1905
1911
1890
1919
1911
1952
1939
1957
2019
1984
2011
1995
1947
2000
1949
1949
1975
1950
1962
1920
1960
1975
1949
1986
1953
1968
1972
1924
1963
1908
1920
1977
1970
1987
2003
2067
2077
1998
1957
1846
1824
1802
1754
1771
1721
1738
1728
1716
1750
1671
1622
1862
2503
3437
2653
1594
1261
1119
1287
1534
1631
1637
1633
1687
1653
1697
1706
1699
1755
1721
1744
1744
1713
1749
1725
1744
1749
1728
1777
1759
1799
1817
1813
1869
1824
1845
1845
1809
1851
1794
1802
1808
1787
1823
1793
1826
1828
1798
1838
1797
1814
1808
1773
1808
1781
1840
1861
1838
1933
1919
1939
1893
1781
1771
1680
1680
1666
1619
1649
1607
1629
1646
1607
1613
1510
1756
2479
3235
2441
1424
1168
1083
1281
1557
1535
1561
1597
1587
1643
1615
1648
1664
1648
1712
1680
1712
1722
1694
1729
1686
1725
1729
1714
1769
1750
1794
1819
1794
1850
1805
1814
1800
1751
1814
1779
1791
1814
1803
1838
1808
1822
1821
1805
1837
1790
1810
1818
1781
1822
1802
1875
1902
1872
1965
1961
1963
1918
1821
1821
1754
1746
1744
1712
1740
1712
1738
1744
1705
1680
1627
1947
2777
3234
2225
1488
1300
1276
1515
1702
1679
1706
1725
1711
1782
1754
1779
1806
1802
1847
1819
1852
1853
1823
1877
1840
1857
1879
1849
1907
1888
1939
1964
1945
1968
1920
1931
1935
1897
1938
1903
1927
1942
1915
1958
1925
1946
1951
1924
1958
1919
1936
1934
1913
1956
1920
1979
2007
2000
2074
2078
2137
2121
2005
1994
1920
1914
1888
1867
1899
1865
1883
1900
1866
1903
1789
1910
2462
3371
2975
1911
1571
1444
1427
1747
1829
1851
1860
1855
1927
1897
1919
1945
1937
1981
1954
1962
1975
1957
1983
1949
1979
1984
1981
2022
2009
2065
2075
2044
2096
2055
2059
2043
1997
2031
1990
1999
2011
1998
2045
2000
2023
2026
2007
2037
1999
2000
1994
1959
2063
2047
2047
2112
2119
2180
2093
2027
1964
1891
1889
1840
1853
1822
1791
1820
1795
1792
1774
1648
1871
2449
3410
2895
1776
1424
1246
1269
1562
1674
1725
1680
1714
1741
1721
1758
1747
1775
1781
1751
1794
1761
1762
1759
1724
1776
1731
1775
1792
1794
1874
1867
1874
1882
1845
1872
1846
1838
1846
1815
1858
1806
1832
1842
1811
1860
1825
1834
1840
1798
1843
1802
1804
1800
1776
1855
1840
1857
1914
1917
1978
1895
1823
1772
1705
1702
1643
1659
1649
1622
1658
1616
1631
1621
1517
1723
2272
3181
2733
1589
1227
1038
1202
1504
1535
1581
1559
1584
1603
1586
1651
1622
1666
1677
1648
1696
1667
1681
1694
1653
1709
1665
1694
1723
1712
1776
1763
1792
1796
1772
1805
1744
1758
1761
1730
1775
1744
1776
1783
1761
1804
1772
1791
1793
1769
1803
1757
1775
1769
1727
1799
1811
1841
1877
1893
1959
1931
1885
1826
1745
1770
1699
1699
1701
1666
1710
1661
1695
1709
1633
1630
1813
2537
3312
2396
1558
1264
1213
1460
1616
1685
1659
1694
1720
1701
1750
1744
1773
1802
1778
1834
1794
1823
1835
1803
1846
1824
1840
1850
1839
1902
1878
1919
1938
1907
1941
1886
1887
1892
1858
1904
1870
1894
1916
1879
1927
1891
1899
1909
1881
1911
1873
1889
1897
1855
1901
1856
1883
1927
1920
1963
1983
2025
2047
1971
1938
1862
1847
1829
1783
1813
1773
1794
1789
1761
1808
1742
1689
1886
2512
3347
2512
1687
1454
1289
1525
1712
1754
1767
1754
1823
1799
1822
1847
1840
1895
1872
1905
1909
1882
1936
1919
1921
1950
1922
1977
1959
1993
2038
2019
2066
2028
2043
2046
2000
2022
2000
2014
2029
2001
2053
2013
2031
2042
2013
2043
2010
2041
2032
1997
2037
1997
1998
2030
2037
2085
2086
2155
2192
2121
2101
2000
1977
1950
1892
1918
1888
1887
1889
1857
1901
1867
1805
1850
2219
3111
3235
2202
1610
1434
1362
1514
1763
1819
1798
1846
1826
1865
1889
1867
1907
1878
1904
1914
1867
1916
1877
1872
1894
1872
1915
1904
1930
1967
1944
2006
1981
1968
1984
1947
1973
1936
1939
1950
1922
1954
1910
1936
1949
1909
1951
1922
1923
1918
1894
1930
1883
1898
1904
1872
1943
1941
1966
2029
2019
2043
1945
1873
1842
1780
1767
1727
1719
1728
1691
1738
1707
1715
1663
1648
2066
2850
3242
2143
1354
1205
1141
1430
1638
1621
1669
1645
1674
1693
1680
1742
1713
1735
1760
1727
1773
1732
1747
1767
1738
1776
1755
1781
1811
1794
1871
1853
1879
1887
1838
1863
1819
1820
1831
1793
1839
1798
1810
1838
1796
1854
1808
1815
1829
1794
1827
1782
1792
1792
1761
1846
1835
1847
1914
1903
1949
1872
1799
1764
1700
1699
1648
1650
1666
1622
1657
1619
1634
1635
1517
1712
2258
3174
2739
1611
1248
1081
1262
1535
1555
1597
1581
1615
1647
1617
1669
1649
1680
1713
1680
1739
1712
1713
1735
1705
1751
1726
1737
1761
1744
1817
1808
1833
1845
1808
1843
1802
1799
1815
1766
1817
1795
1805
1823
1807
1853
1810
1821
1839
1794
1842
1809
1808
1821
1790
1836
1801
1837
1903
1874
1947
1947
1984
1975
1887
1872
1791
1779
1767
1729
1759
1725
1743
1760
1721
1766
1655
1693
2076
2902
3136
2014
1478
1337
1310
1631
1701
1702
1745
1726
1782
1764
1792
1823
1796
1857
1831
1845
1888
1843
1873
1861
1874
1900
1861
1923
1915
1933
1968
1949
2000
1966
1967
1978
1923
1961
1923
1938
1965
1937
1982
1955
1971
1997
1939
1989
1968
1984
1993
1943
1993
1965
1968
1990
2005
2080
2070
2118
2153
2123
2106
2005
1963
1963
1902
1923
1881
1887
1908
1871
1914
1887
1835
1838
2112
2947
3319
2334
1689
1478
1383
1535
1792
1850
1806
1872
1851
1869
1917
1888
1931
1910
1933
1947
1925
1954
1909
1921
1941
1919
1978
1952
1979
2014
2003
2064
2035
2043
2045
1993
2017
1979
1975
2005
1958
1993
1986
1999
2000
1969
2016
1994
1987
2001
1955
1983
1946
1967
2011
1998
2038
2047
2107
2160
2067
2016
1927
1892
1881
1810
1850
1810
1808
1817
1775
1809
1776
1686
1835
2351
3326
3014
1882
1431
1265
1291
1533
1671
1702
1680
1731
1696
1718
1765
1735
1777
1751
1766
1792
1751
1779
1744
1754
1776
1740
1778
1776
1810
1856
1843
1902
1870
1872
1882
1826
1857
1826
1824
1842
1806
1856
1824
1840
1853
1819
1856
1830
1835
1853
1809
1841
1810
1810
1851
1855
1899
1908
1958
2000
1925
1889
1791
1747
1743
1667
1702
1666
1666
1685
1643
1683
1653
1581
1657
2063
2991
3055
1879
1321
1116
1182
1456
1586
1603
1575
1637
1622
1613
1649
1634
1687
1665
1679
1709
1675
1718
1685
1695
1714
1674
1729
1709
1731
1779
1759
1825
1808
1809
1815
1771
1801
1758
1755
1783
1762
1810
1787
1782
1806
1776
1823
1783
1795
1809
1774
1799
1761
1767
1771
1770
1871
1840
1886
1943
1923
1937
1840
1787
1775
1710
1725
1686
1683
1694
1662
1703
1685
1685
1636
1617
2097
2970
3056
1943
1373
1245
1280
1567
1677
1642
1702
1689
1719
1749
1723
1776
1761
1779
1814
1781
1827
1808
1811
1835
1808
1855
1834
1846
1885
1872
1923
1920
1926
1933
1891
1925
1891
1891
1903
1874
1915
1898
1911
1922
1887
1923
1895
1898
1912
1872
1906
1867
1873
1894
1862
1953
1951
1961
2030
2025
2071
1989
1926
1904
1846
1857
1823
1820
1829
1786
1840
1824
1831
1820
1713
1962
2647
3398
2543
1692
1520
1360
1566
1789
1787
1840
1831
1853
1885
1861
1920
1908
1916
1952
1931
1980
1953
1965
1979
1936
1978
1968
1968
2021
2004
2074
2067
2080
2098
2034
2067
2023
2015
2027
1993
2027
2014
2003
2014
1987
2030
2000
2005
2032
1978
2027
1991
1984
2007
2007
2069
2046
2096
2154
2141
2123
2003
1968
1959
1859
1887
1844
1826
1865
1815
1845
1846
1807
1729
1904
2559
3381
2729
1798
1451
1370
1342
1623
1776
1753
1777
1783
1803
1831
1811
1853
1806
1843
1877
1820
1872
1829
1824
1856
1807
1846
1857
1867
1904
1901
1968
1959
1966
1964
1899
1942
1904
1878
1924
1872
1899
1885
1891
1889
1872
1909
1867
1891
1895
1840
1888
1846
1830
1904
1904
1920
1952
1974
2022
1951
1897
1796
1774
1776
1670
1713
1680
1653
1691
1648
1667
1644
1555
1699
2247
3216
2869
1691
1262
1071
1216
1488
1570
1599
1578
1634
1627
1629
1651
1643
1698
1667
1689
1717
1665
1715
1685
1679
1715
1677
1715
1719
1737
1779
1782
1839
1799
1814
1822
1753
1797
1762
1761
1792
1747
1776
1781
1789
1804
1776
1817
1763
1780
1796
1739
1782
1750
1751
1840
1808
1858
1888
1915
1930
1850
1805
1724
1712
1695
1619
1678
1631
1616
1653
1616
1653
1607
1520
1735
2381
3298
2544
1520
1237
1071
1349
1564
1582
1606
1600
1664
1648
1663
1707
1679
1738
1725
1725
1763
1731
1767
1749
1756
1792
1749
1803
1793
1808
1865
1845
1905
1872
1869
1896
1838