ecg_value
2027
2027
2027
2027
2027
2027
2027
2027
2027
2027
2027
2027
2027
2027
2027
2027
2027
2027
2027
2027
2027
2027
2027
2027
2027
2027
2027
2027
2027
2027
2027
2027
2027
2027
2027
2027
2027
2027
2027
2027
2027
2027
2027
2027
2027
2027
2027
2027
2027
2027
2027
2027
2027
2027
2027
2027
2027
2027
2027
2027
2027
2027
2027
2027
2027
2027
2027
2027
2027
2027
2027
4095
3085
2061
1407
1113
1098
1150
1168
1232
1314
1396
1498
1513
1535
1589
1635
1625
1615
1652
1686
1679
1681
1680
1743
1802
1791
1798
1843
1887
1863
1798
1764
1742
1773
1771
1812
1869
1851
1878
1877
1856
1872
1827
1842
1872
1882
1910
1949
1987
2022
2126
2080
1931
1873
1778
1767
1770
1742
1745
1771
1763
1781
1759
1773
1802
1745
1744
2039
3203
4095
4095
4095
3011
2103
1535
1287
1233
1235
1309
1365
1451
1499
1525
1611
1629
1659
1663
1636
1670
1680
1661
1684
1670
1709
1776
1828
1920
1947
1955
1883
1824
1823
1823
1878
1895
1867
1919
1919
1921
1905
1903
1930
1943
1950
1939
1909
1937
1975
2043
2074
2162
2196
2083
1968
1866
1833
1751
1742
1765
1767
1792
1833
1847
1869
1808
1795
1751
1763
2399
4095
4095
4095
4016
2691
1911
1421
1233
1201
1287
1347
1407
1507
1584
1625
1664
1648
1648
1648
1647
1615
1619
1648
1666
1707
1767
1811
1859
1880
1875
1909
1872
1879
1872
1869
1889
1839
1874
1876
1908
1905
1904
1904
1874
1889
1876
1872
1902
1919
2001
2027
2015
2112
2135
2027
1903
1831
1807
1773
1761
1775
1776
1808
1820
1768
1723
1748
1776
1723
1823
2532
4095
4095
4095
4095
2864
1875
1329
1138
1113
1171
1251
1329
1451
1509
1521
1591
1616
1635
1665
1641
1622
1665
1710
1725
1731
1712
1758
1801
1830
1790
1789
1805
1805
1834
1829
1791
1774
1792
1831
1862
1859
1856
1834
1886
1874
1829
1873
1872
1872
1917
1925
1958
1985
2031
2077
1997
1887
1809
1823
1837
1758
1744
1766
1777
1780
1793
1806
1808
1814
1745
1804
2477
4095
4095
4095
4095
2809
1847
1302
1088
1105
1200
1237
1323
1390
1446
1525
1501
1535
1602
1634
1647
1669
1697
1671
1619
1645
1663
1698
1729
1747
1763
1795
1808
1777
1778
1715
1697
1737
1759
1712
1714
1747
1815
1829
1785
1763
1807
1801
1750
1778
1882
1882
1882
1955
2017
1918
1827
1747
1695
1652
1643
1633
1675
1664
1659
1649
1622
1653
1671
1627
1601
1911
3131
4095
4095
4095
2739
1841
1312
1100
1091
1110
1187
1243
1301
1337
1389
1455
1487
1494
1496
1497
1520
1563
1533
1557
1576
1617
1695
1702
1730
1765
1739
1743
1729
1738
1744
1779
1786
1749
1794
1769
1760
1748
1763
1776
1813
1842
1842
1865
1911
1974
1937
1904
1968
2065
2027
1988
1914
1796
1727
1716
1744
1774
1749
1699
1712
1754
1762
1793
1785
1768
2245
3888
4095
4095
4095
2861
1931
1417
1228
1210
1286
1361
1451
1535
1535
1648
1730
1619
1583
1606
1639
1687
1699
1702
1709
1774
1792
1806
1859
1904
1890
1841
1821
1840
1883
1913
1942
1936
1923
1877
1847
1873
1873
1909
1954
1946
1904
1904
1887
1872
1936
1959
2027
2160
2210
2115
1967
1829
1802
1744
1758
1776
1813
1831
1865
1872
1830
1757
1772
1680
1822
2705
4095
4095
4095
4095
2921
1927
1379
1140
1099
1142
1232
1367
1424
1498
1569
1589
1625
1666
1646
1661
1687
1713
1677
1647
1664
1744
1790
1840
1819
1819
1792
1828
1808
1791
1760
1808
1826
1800
1776
1808
1853
1855
1885
1915
1853
1827
1838
1904
1894
1879
1895
1941
1991
2082
2064
2011
1924
1793
1728
1690
1721
1770
1781
1776
1799
1846
1873
1807
1767
1774
2211
4095
4095
4095
95
3185
2094
1422
1153
1043
1122
1190
1250
1359
1429
1477
1515
1535
1603
1616
1655
1684
1680
1655
1632
1661
1712
1730
1751
1747
1779
1783
1792
1776
1694
1689
1713
1732
1757
1765
1758
1746
1800
1868
1872
1867
1827
1804
1840
1869
1877
1917
1931
2035
2106
2073
1937
1776
1739
1717
1680
1689
1707
1741
1758
1747
1808
1811
1846
1677
1640
2245
4046
4095
4095
3981
2621
1812
1382
1191
1150
1153
1248
1362
1407
1456
1506
1575
1579
1574
1613
1642
1639
1648
1603
1634
1667
1709
1755
1771
1827
1845
1791
1826
1834
1838
1815
1818
1806
1773
1791
1807
1854
1898
1907
1865
1872
1856
1837
1844
1936
1999
2014
2058
2143
2130
1999
1883
1863
1808
1750
1773
1749
1775
1775
1780
1808
1774
1803
1775
1744
1968
2993
4095
4095
4095
3351
2304
1659
1344
1264
1247
1325
1440
1498
1535
1579
1613
1694
1691
1646
1631
1674
1674
1665
1651
1690
1776
1776
1769
1839
1936
1978
1959
1923
1915
1890
1889
1878
1898
1925
1935
1933
1909
1859
1894
1956
1987
1956
1959
1947
1967
1986
2045
2133
2170
2110
2032
1919
1814
1801
1840
1808
1799
1792
1808
1808
1843
1815
1793
1773
1745
2035
3417
4095
4095
4095
3498
2293
1592
1260
1153
1154
1264
1339
1442
1535
1565
1506
1582
1535
1571
1567
1618
1680
1733
1708
1625
1648
1678
1692
1718
1776
1883
2039
1830
1758
1751
1712
1687
1787
1840
1941
1963
1888
1799
1775
1771
1849
1907
1903
1970
1922
1856
1833
1877
1888
1997
2091
2005
1984
1969
1766
1731
1761
1699
1701
1813
1808
1787
1863
1854
1751
1790
1766
2163
3888
4095
4095
4095
3205
2103
1403
1135
1084
1104
1218
1338
1584
1570
1535
1572
1597
1570
1568
1588
1596
1644
1741
1837
1817
1728
1734
1715
1696
1741
1793
1857
1835
1802
1744
1788
1765
1783
1778
1729
1711
1767
1809
1864
1957
1907
1767
1783
1841
1862
1835
1847
1879
2032
2064
2007
2000
1859
1712
1710
1681
1672
1702
1683
1701
1709
1825
1897
1811
1636
1605
1936
3255
4095
4095
4095
2903
2074
1559
1226
1104
1182
1227
1244
1343
1535
1568
1569
1680
1570
1489
1649
1604
1583
1639
1680
1708
1732
1767
1776
1853
1856
1806
1758
1744
1728
1778
1918
1853
1814
1853
1794
1799
1834
1835
1886
1840
1839
1861
1958
1826
1985
1952
1839
1963
2058
2077
2002
1893
1803
1789
1795
1776
1760
1749
1684
1648
1727
1779
1796
1829
1872
1944
2690
4095
4095
4095
3408
2363
1639
1317
1213
1280
1325
1392
1457
1488
1511
1564
1535
1581
1634
1711
1701
1705
1679
1686
1667
1623
1685
1808
1903
1968
1936
1904
1872
1874
1872
1883
1857
1906
1935
1895
1927
2014
1911
1927
1898
1870
1930
1939
1986
2064
2095
2071
2078
2071
2013
2001
1905
1859
1853
1799
1809
1872
1872
1789
1715
1823
1842
1771
1761
1904
2455
4095
4095
4095
4095
2907
1968
1463
1195
1138
1238
1441
1473
1517
1569
1530
1506
1535
1615
1677
1725
1801
1785
1648
1637
1655
1702
1744
1839
1942
1879
1889
1975
1850
1744
1771
1832
1805
1805
1874
1887
1930
1996
1907
1879
1853
1751
1766
1831
1963
1998
1995
2034
2102
2119
1985
1915
1840
1765
1731
1743
1779
1842
1897
1903
1840
1754
1733
1712
1680
1914
3006
4095
4095
4095
3559
2317
1591
1293
1165
1116
1186
1293
1454
1502
1478
1574
1523
1495
1499
1511
1520
1568
1626
1704
1673
1710
1648
1676
1701
1639
1651
1627
1648
1721
1719
1735
1680
1664
1625
1637
1676
1732
1744
1747
1741
1750
1799
1773
1808
1801
1860
1909
1995
1939
1808
1740
1782
1681
1653
1687
1699
1629
1633
1683
1719
1693
1667
1680
1759
1989
3131
4095
4095
3897
2559
1861
1449
1293
1295
1276
1335
1428
1477
1449
1449
1571
1535
1535
1603
1645
1616
1632
1665
1665
1678
1685
1762
1801
1778
1795
1826
1917
1819
1726
1711
1776
1796
1820
1903
1911
1875
1931
1856
1776
1778
1827
1905
1979
1957
1968
2143
2109
2000
1957
1827
1792
1745
1728
1742
1743
1890
1835
1742
1733
1741
1836
1744
1709
2090
3424
4095
4095
3963
2608
1935
1520
1407
1344
1429
1414
1417
1444
1491
1594
1714
1712
1614
1642
1652
1665
1648
1618
1645
1680
1733
1839
1903
1830
1756
1776
1877
1869
1835
1854
1885
1965
1983
1929
1776
1759
1839
1898
1944
1978
2000
2010
2043
2114
2021
2009
2059
2064
1995
1920
1891
1866
1830
1818
1808
1787
1861
1815
1771
1829
1809
1781
2002
2955
4095
4095
4095
3040
2183
1681
1450
1447
1475
1505
1535
1603
1621
1630
1694
1749
1669
1661
1750
1779
1792
1822
1883
1811
1744
1821
1791
1838
1844
1835
1855
1844
1813
1774
1761
1822
1894
1744
1781
1807
1808
1867
1842
1886
1926
1920
1863
1873
1909
2017
2114
2023
1967
1851
1845
1776
1725
1751
1748
1771
1801
1789
1815
1760
1735
1683
1718
2255
3902
4095
4095
3879
2483
1743
1359
1269
1286
1358
1430
1488
1493
1488
1557
1623
1638
1593
1584
1627
1655
1674
1691
1711
1770
1779
1748
1792
1767
1793
1701
1632
1666
1712
1733
1727
1776
1759
1808
1793
1719
1707
1744
1762
1782
1821
1867
1875
1921
1984
2014
2002
1964
1843
1753
1698
1670
1703
1712
1711
1776
1807
1762
1730
1715
1675
1584
1744
2505
3931
4095
4095
2867
1911
1535
1383
1357
1365
1396
1439
1483
1566
1666
1647
1639
1663
1713
1682
1683
1675
1657
1683
1739
1776
1801
1790
1794
1822
1845
1839
1920
1818
1744
1769
1755
1755
1797
1856
1881
1903
1889
1904
1814
1845
1856
1867
1904
1965
2036
2064
2096
2042
1891
1894
1831
1716
1746
1770
1717
1739
1730
1808
1858
1811
1795
1712
1810
2230
3667
4095
4095
3286
2243
1691
1535
1533
1501
1447
1442
1479
1559
1610
1621
1667
1731
1690
1687
1726
1726
1719
1705
1759
1760
1727
1793
1826
1823
1814
1859
1967
1874
1812
1853
1833
1844
1838
1861
1915
1884
1902
1950
1989
1872
1851
1933
1975
1996
2003
2109
2199
2124
2045
1951
1895
1834
1819
1747
1754
1791
1789
1775
1826
1853
1840
1804
1744
1997
2959
4095
4095
4095
2997
2047
1568
1427
1389
1402
1425
1523
1562
1574
1524
1515
1603
1649
1668
1741
1747
1709
1789
1747
1695
1738
1755
1755
1779
1843
1808
1795
1811
1837
1826
1827
1751
1766
1808
1826
1813
1805
1853
1904
1904
1842
1808
1818
1815
1904
1975
1986
2032
2055
2069
2000
1959
1878
1822
1805
1763
1763
1807
1811
1823
1802
1841
1838
1749
1761
1728
1879
2743
4095
4095
4095
3147
2114
1568
1392
1327
1366
1441
1479
1531
1561
1566
1616
1670
1689
1667
1636
1658
1734
1795
1767
1759
1861
1787
1767
1783
1804
1829
1782
1862
1781
1679
1717
1734
1767
1745
1731
1799
1757
1728
1770
1789
1802
1776
1776
1796
1843
1827
1866
1856
1810
1890
2006
2020
1919
1821
1782
1715
1707
1765
1733
1689
1712
1712
1705
1766
1744
1744
1696
1612
1703
2323
3911
4095
4095
3102
2117
1573
1331
1331
1339
1403
1459
1421
1451
1470
1535
1616
1701
1697
1616
1607
1633
1680
1738
1776
1806
1793
1744
1776
1842
1840
1766
1741
1773
1792
1722
1699
1727
1795
1822
1785
1799
1850
1865
1840
1781
1829
1835
1835
1869
1934
1946
2009
1963
1899
2000
2041
2021
1936
1741
1708
1744
1703
1728
1798
1850
1789
1711
1729
1733
1762
1788
1804
2046
2819
4095
4095
4095
2783
1922
1579
1446
1404
1521
1535
1584
1615
1559
1535
1584
1600
1664
1722
1747
1758
1746
1779
1744
1739
1765
1798
1808
1793
1827
1872
1915
1881
1840
1883
1882
1781
1759
1786
1795
1803
1872
1934
1930
1867
1919
1906
1858
1881
1878
1959
1979
2026
2075
2113
2063
1978
1978
1992
1817
1792
1794
1764
1762
1766
1770
1797
1808
1827
1819
1823
1825
1774
2075
3386
4095
4095
4095
2805
2001
1575
1410
1499
1475
1387
1401
1442
1555
1604
1621
1646
1680
1691
1728
1793
1728
1731
1793
1762
1744
1771
1820
1890
1863
1821
1779
1808
1824
1797
1776
1799
1813
1817
1779
1813
1851
1863
1881
1846
1845
1849
1890
1881
1841
1907
1935
1915
1963
2059
2066
1970
1937
1942
1841
1743
1715
1762
1835
1797
1777
1754
1751
1754
1783
1808
1777
1726
1993
3127
4095
4095
4095
2917
2074
1522
1307
1335
1408
1438
1503
1535
1503
1577
1607
1600
1615
1691
1694
1744
1750
1712
1745
1792
1811
1859
1791
1758
1805
1819
1817
1781
1797
1795
1766
1764
1757
1746
1757
1771
1776
1831
1855
1845
1818
1829
1837
1815
1832
1841
1883
1867
1905
1958
2028
2043
1918
1827
1793
1722
1728
1730
1774
1779
1760
1712
1711
1754
1742
1754
1775
1725
1846
2550
4095
4095
4095
3069
2089
1579
1402
1366
1442
1405
1418
1514
1523
1581
1600
1648
1663
1722
1723
1651
1638
1681
1712
1758
1775
1787
1877
1856
1856
1817
1719
1760
1778
1789
1849
1807
1758
1771
1840
1844
1787
1821
1815
1827
1843
1858
1879
1873
1909
1911
1895
1911
1947
2071
2078
1994
1932
1839
1776
1766
1829
1798
1721
1759
1820
1763
1783
1783
1806
1798
1709
1819
2287
3778
4095
4095
3408
2262
1694
1470
1456
1477
1520
1623
1562
1535
1527
1563
1614
1644
1705
1698
1663
1659
1677
1725
1728
1727
1776
1750
1786
1871
1841
1840
1879
1850
1856
1840
1782
1795
1858
1886
1851
1843
1839
1822
1903
1905
1895
1862
1878
1933
1971
1966
1922
1999
2087
2112
2089
2000
1844
1792
1783
1776
1751
1789
1822
1819
1750
1792
1808
1840
1750
1723
1973
3037
4095
4095
4095
2698
1920
1634
1488
1407
1419
1449
1535
1535
1557
1584
1637
1691
1645
1643
1641
1662
1743
1712
1680
1691
1711
1743
1742
1776
1851
1914
1887
1851
1806
1782
1797
1802
1811
1861
1892
1850
1813
1809
1871
1904
1895
1893
1867
1838
1862
1895
1965
1949
2039
2128
2046
1907
1814
1796
1787
1769
1763
1758
1791
1793
1771
1734
1735
1802
1787
1719
1806
2527
4095
4095
4095
3601
2335
1680
1414
1322
1401
1441
1417
1447
1489
1558
1570
1607
1673
1609
1643
1655
1648
1677
1695
1727
1728
1789
1792
1777
1754
1807
1822
1770
1726
1776
1793
1779
1775
1760
1761
1748
1765
1808
1807
1805
1806
1847
1840
1785
1847
1874
1903
1899
1904
2023
2002
1919
1856
1843
1807
1733
1743
1731
1744
1742
1749
1773
1757
1781
1790
1666
1701
2005
3139
4095
4095
4095
2773
1866
1488
1287
1295
1391
1399
1471
1483
1520
1587
1562
1570
1585
1631
1644
1593
1649
1653
1695
1741
1706
1699
1701
1750
1783
1785
1814
1794
1744
1742
1756
1807
1738
1732
1787
1794
1762
1778
1845
1874
1856
1811
1834
1858
1893
1858
1879
1936
2064
2096
1985
1850
1797
1819
1782
1722
1707
1699
1755
1744
1773
1801
1818
1792
1728
1721
2100
3431
4095
4095
3391
2311
1719
1471
1430
1510
1498
1455
1488
1535
1620
1618
1557
1615
1725
1712
1653
1626
1642
1684
1768
1771
1728
1762
1846
1850
1837
1821
1881
1878
1825
1776
1781
1857
1845
1830
1872
1874
1894
1891
1840
1835
1827
1870
1876
1958
2023
2032
2019
2038
2058
2001
1891
1853
1832
1753
1778
1774
1794
1767
1796
1826
1793
1813
1792
1759
1803
2384
4095
4095
4095
3393
2279
1728
1456
1430
1443
1445
1514
1555
1558
1585
1618
1675
1699
1644
1638
1639
1662
1667
1647
1658
1680
1717
1759
1799
1831
1839
1893
1874
1856
1835
1800
1863
1857
1821
1890
1889
1909
1889
1883
1888
1822
1863
1899
1939
2007
1991
2032
2137
2096
1978
1893
1835
1773
1744
1783
1786
1789
1777
1757
1777
1786
1776
1750
1680
1754
2448
4095
4095
4095
4039
2619
1808
1367
1229
1244
1319
1437
1419
1456
1535
1523
1535
1535
1570
1623
1664
1709
1689
1647
1646
1668
1722
1712
1744
1815
1780
1829
1808
1789
1761
1745
1767
1763
1791
1792
1771
1815
1863
1861
1840
1835
1856
1872
1841
1873
1927
1977
2004
2039
2008
1904
1829
1787
1756
1712
1718
1729
1760
1754
1772
1748
1751
1795
1749
1681
1991
3477
4095
4095
4095
3116
2059
1482
1226
1184
1248
1303
1373
1436
1501
1535
1555
1558
1620
1631
1611
1649
1719
1702
1658
1645
1668
1726
1734
1747
1776
1821
1835
1789
1763
1712
1725
1739
1715
1722
1757
1778
1859
1877
1808
1795
1865
1816
1814
1814
1836
1914
2043
2112
2010
1902
1817
1792
1755
1678
1670
1705
1717
1697
1696
1714
1761
1786
1771
1744
2091
3487
4095
4095
3829
2480
1787
1422
1335
1360
1457
1482
1420
1397
1456
1509
1594
1619
1620
1661
1699
1680
1586
1579
1653
1706
1746
1766
1789
1810
1839
1803
1759
1766
1823
1799
1780
1821
1845
1801
1791
1839
1831
1842
1851
1858
1872
1888
1933
1904
1909
1999
2069
2087
2033
1919
1856
1790
1736
1757
1707
1734
1790
1765
1806
1790
1771
1744
1703
1823
2454
4095
4095
4095
3363
2237
1666
1424
1373
1431
1474
1519
1491
1563
1609
1607
1606
1652
1676
1694
1691
1648
1686
1712
1715
1648
1666
1766
1853
1887
1911
1901
1885
1822
1846
1834
1841
1843
1847
1914
1925
1882
1851
1904
1936
1869
1870
1932
2003
2017
2002
2095
2163
2061
1962
1878
1873
1833
1740
1719
1726
1794
1815
1841
1808
1791
1831
1775
1716
1931
3130
4095
4095
4095
3277
2218
1535
1279
1222
1280
1375
1454
1535
1523
1519
1535
1598
1596
1600
1622
1643
1683
1699
1693
1660
1615
1671
1739
1794
1829
1888
1854
1848
1882
1826
1776
1829
1863
1776
1785
1857
1891
1941
1910
1872
1843
1885
1840
1843
1955
1968
1983
2011
2096
2096
1996
1873
1776
1744
1775
1776
1786
1806
1842
1791
1681
1728
1767
1743
1731
1872
2810
4095
4095
4095
3666
2426
1671
1326
1234
1265
1313
1353
1393
1438
1528
1605
1611
1587
1645
1683
1634
1597
1600
1636
1675
1728
1796
1759
1750
1806
1809
1771
1754
1745
1742
1763
1793
1787
1811
1822
1856
1775
1771
1807
1823
1815
1840
1865
1866
1866
1876
1881
1936
1979
1985
2001
1977
1872
1796
1746
1748
1765
1734
1711
1713
1744
1761
1777
1773
1746
1730
1712
2095
3583
4095
4095
4095
2698
1830
1373
1273
1287
1340
1344
1380
1483
1455
1501
1535
1517
1569
1616
1611
1598
1629
1667
1738
1677
1653
1645
1691
1763
1773
1766
1779
1808
1760
1730
1739
1719
1744
1823
1810
1818
1782
1763
1776
1827
1900
1861
1808
1805
1871
1897
1919
1933
1974
2079
2000
1865
1799
1778
1776
1712
1670
1680
1707
1750
1786
1767
1762
1807
1808
1718
1875
2854
4095
4095
4095
2901
2087
1567
1299
1280
1301
1372
1456
1519
1608
1616
1632
1666
1612
1568
1584
1638
1686
1718
1746
1716
1705
1737
1750
1833
1793
1780
1848
1864
1842
1843
1871
1856
1808
1818
1805
1891
1882
1835
1855
1877
1906
1878
1875
1925
1980
2000
1969
2017
2096
2096
1991
1904
1856
1834
1840
1873
1782
1763
1769
1772
1759
1758
1815
1817
1810
1794
1963
2986
4095
4095
4095
3265
2250
1634
1320
1254
1318
1363
1411
1489
1535
1533
1565
1609
1616
1607
1647
1667
1635
1637
1673
1647
1725
1735
1712
1745
1819
1899
1903
1851
1810
1791
1803
1781
1811
1923
1873
1822
1903
1872
1845
1830
1829
1915
1934
1908
1910
1954
1919
1936
1993
1951
2032
2070
2046
1924
1810
1794
1866
1785
1738
1743
1738
1792
1807
1851
1822
1808
1766
1778
2135
3689
4095
4095
4095
3085
2078
1535
1323
1264
1296
1395
1463
1498
1535
1530
1559
1618
1572
1587
1642
1663
1626
1616
1677
1712
1675
1727
1773
1712
1735
1790
1782
1765
1763
1794
1787
1761
1698
1679
1710
1737
1808
1810
1809
1840
1905
1878
1808
1797
1778
1742
1808
1889
1935
1964
1987
2128
1997
1923
1765
1702
1702
1707
1694
1733
1728
1714
1783
1830
1695
1726
1749
1690
1712
2171
3504
4095
4095
3532
2311
1679
1430
1330
1319
1362
1364
1433
1473
1507
1535
1600
1642
1621
1642
1670
1664
1615
1607
1679
1682
1670
1747
1813
1889
1856
1797
1806
1762
1739
1793
1834
1811
1782
1789
1831
1827
1847
1845
1815
1829
1846
1894
1902
1870
1883
2000
2003
1970
1989
2112
2043
1945
1859
1824
1781
1783
1804
1801
1781
1728
1691
1739
1779
1794
1799
1823
1825
2002
2997
4095
4095
4095
2887
2032
1632
1374
1362
1440
1441
1525
1616
1642
1602
1633
1663
1705
1687
1658
1662
1648
1645
1693
1687
1723
1773
1787
1826
1871
1819
1873
1885
1870
1840
1867
1910
1786
1805
1851
1865
1801
1804
1895
1936
1942
1907
1854
1907
1855
1923
1969
2065
2105
2127
2019
1961
1862
1799
1761
1764
1813
1742
1700
1727
1753
1771
1762
1766
1767
1711
1826
2630
4095
4095
4095
3664
2406
1671
1287
1191
1244
1354
1436
1461
1522
1535
1535
1583
1525
1510
1533
1579
1647
1617
1662
1708
1647
1579
1535
1661
1762
1856
1911
1872
1874
1914
1824
1758
1725
1730
1771
1758
1786
1840
1915
1936
1855
1822
1840
1839
1839
1846
1872
1951
2006
2067
2066
2125
2079
1855
1744
1727
1744
1744
1765
1751
1742
1798
1765
1725
1699
1751
1776
1680
2001
3188
4095
4095
4095
3201
2164
1555
1277
1158
1214
1334
1405
1443
1490
1521
1591
1567
1573
1618
1591
1559
1554
1570
1604
1643
1646
1687
1791
1882
1819
1755
1785
1835
1813
1808
1831
1820
1847
1872
1867
1875
1814
1808
1810
1827
1856
1894
1911
1934
1895
1898
1895
1909
1898
1911
1956
2037
2131
2041
1933
1861
1757
1739
1739
1744
1762
1813
1808
1767
1810
1776
1790
1807
1697
1871
2830
4095
4095
4095
3152
2182
1686
1466
1330
1371
1457
1472
1525
1485
1503
1565
1600
1629
1671
1738
1685
1631
1634
1616
1622
1671
1664
1708
1793
1914
1894
1840
1883
1882
1833
1776
1777
1797
1815
1862
1871
1885
1939
1918
1837
1793
1823
1863
1834
1845
1917
1904
1883
1891
1942
1952
1984
2077
2059
1985
1936
1840
1837
1801
1718
1726
1734
1757
1808
1806
1756
1759
1830
1792
1723
1821
2632
4095
4095
4095
3705
2385
1653
1371
1317
1330
1344
1374
1462
1529
1565
1563
1566
1535
1567
1590
1591
1594
1596
1647
1630
1574
1578
1674
1777
1775
1773
1840
1815
1808
1783
1767
1778
1822
1806
1776
1763
1825
1856
1847
1857
1906
1867
1830
1842
1872
1827
1891
1935
1950
1985
2053
2064
1995
1927
1825
1827
1809
1729
1712
1743
1770
1794
1781
1779
1766
1787
1771
1709
1777
2234
3728
4095
4095
3981
2549
1799
1477
1381
1392
1392
1422
1468
1519
1601
1616
1559
1584
1585
1616
1642
1680
1723
1733
1678
1715
1722
1728
1734
1779
1790
1802
1827
1814
1834
1931
1854
1743
1715
1775
1766
1782
1842
1853
1835
1808
1829
1941
1858
1791
1823
1859
1910
1909
1929
1984
2065
2047
1943
1856
1803
1711
1712
1700
1738
1798
1793
1795
1795
1781
1746
1713
1697
1765
2288
3691
4095
4095
3345
2224
1682
1442
1361
1405
1467
1485
1516
1569
1591
1603
1603
1612
1605
1579
1616
1669
1680
1680
1669
1738
1698
1741
1782
1806
1830
1803
1777
1827
1838
1811
1829
1790
1869
1825
1790
1799
1790
1819
1851
1875
1890
1904
1878
1829
1819
1903
1930
2001
2045
2086
2042
1968
1853
1776
1781
1744
1713
1739
1755
1798
1822
1811
1772
1727
1777
1717
1776
2411
4095
4095
4095
3321
2195
1705
1498
1463
1460
1446
1454
1489
1511
1568
1648
1616
1616
1654
1631
1633
1617
1617
1595
1641
1670
1696
1744
1808
1840
1837
1863
1853
1809
1810
1878
1812
1805
1823
1860
1911
1841
1903
1870
1840
1851
1825
1854
1866
1952
2000
1953
2002
2064
2123
2015
1903
1863
1824
1776
1775
1786
1757
1763
1728
1744
1795
1786
1784
1755
1683
1744
2464
4095
4095
4095
3776
2449
1714
1378
1314
1343
1415
1431
1490
1535
1535
1584
1562
1535
1600
1582
1598
1607
1593
1603
1616
1680
1654
1670
1728
1744
1841
1814
1802
1819
1777
1808
1808
1774
1790
1825
1813
1807
1869
1821
1808
1835
1869
1875
1874
1879
1878
1968
1983
1986
2081
2014
1937
1867
1840
1743
1739
1785
1791
1741
1728
1733
1722
1775
1789
1744
1702
1722
2150
3871
4095
4095
4095
2834
1947
1456
1309
1312
1328
1397
1497
1488
1453
1504
1535
1598
1651
1649
1595
1601
1585
1593
1602
1670
1681
1746
1781
1749
1807
1893
1853
1803
1794
1781
1809
1788
1803
1808
1838
1834
1808
1837
1855
1849
1856
1883
1849
1843
1843
1898
1942
1965
1993
2099
2113
1950
1834
1808
1763
1719
1742
1761
1746
1778
1825
1794
1775
1785
1770
1713
1735
2461
4095
4095
4095
3706
2494
1758
1406
1351
1378
1385
1367
1421
1498
1518
1573
1584
1600
1679
1616
1586
1617
1600
1594
1663
1680
1693
1738
1797
1766
1799
1826
1872
1831
1788
1827
1835
1811
1808
1811
1835
1808
1814
1869
1869
1868
1851
1872
1873
1907
1933
1907
1924
2011
2064
2047
1986
1872
1838
1825
1765
1735
1769
1758
1769
1792
1786
1824
1823
1791
1731
1681
2161
3715
4095
4095
3985
2595
1856
1487
1347
1344
1367
1437
1475
1574
1535
1595
1663
1602
1602
1577
1626
1690
1680
1706
1706
1714
1722
1769
1767
1765
1802
1791
1819
1808
1795
1797
1782
1821
1813
1765
1744
1782
1797
1859
1840
1823
1857
1905
1867
1822
1808
1840
1887
1952
2021
2067
2033
1917
1812
1773
1763
1710
1680
1728
1771
1771
1757
1779
1817
1776
1739
1677
1872
2802
4095
4095
3763
2583
1867
1525
1423
1438
1474
1522
1527
1517
1580
1582
1595
1602
1613
1659
1655
1698
1661
1646
1686
1691
1744
1774
1779
1776
1808
1851
1882
1773
1744
1799
1833
1880
1840
1815
1823
1774
1835
1856
1841
1866
1847
1867
1915
1930
1907
1903
1920
1982
2112
2077
1941
1860
1907
1802
1705
1744
1741
1772
1840
1840
1775
1749
1783
1815
1714
1703
2101
3408
4095
4095
3511
2318
1795
1495
1411
1471
1490
1517
1571
1600
1619
1625
1603
1623
1633
1615
1622
1675
1762
1671
1631
1599
1637
1725
1794
1853
1869
1857
1917
1862
1830
1817
1779
1787
1822
1914
1902
1883
1884
1837
1807
1831
1870
1849
1856
1954
2013
2017
2018
2107
2123
2004
1952
1872
1808
1795
1787
1802
1757
1733
1805
1748
1761
1809
1808
1775
1719
1882
2682
4095
4095
4095
3026
2090
1594
1418
1399
1435
1503
1520
1521
1629
1535
1483
1553
1587
1598
1626
1647
1615
1613
1623
1724
1723
1578
1623
1759
1811
1798
1781
1837
1882
1794
1814
1815
1761
1750
1800
1795
1837
1883
1846
1875
1850
1855
1878
1829
1838
1911
1937
1990
1950
2060
2096
1949
1822
1751
1759
1765
1750
1796
1762
1745
1791
1771
1773
1733
1747
1761
1730
2054
3394
4095
4095
4095
2854
1940
1508
1345
1360
1412
1425
1466
1499
1522
1568
1503
1515
1616
1687
1595
1590
1659
1682
1660
1693
1715
1713
1737
1755
1762
1791
1869
1904
1765
1743
1787
1813
1810
1766
1810
1767
1762
1840
1893
1872
1802
1833
1887
1871
1817
1831
1931
1924
1936
2054
1987
1936
1898
1823
1803
1775
1801
1744
1706
1757
1758
1729
1761
1767
1808
1785
1690
1895
2934
4095
4095
4095
2881
1977
1535
1349
1370
1408
1441
1491
1489
1515
1523
1562
1676
1587
1565
1613
1617
1637
1652
1703
1707
1739
1795
1825
1899
1821
1725
1692
1696
1755
1732
1769
1802
1776
1838
1825
1747
1743
1765
1767
1776
1829
1895
1862
1833
1844
1861
1875
1925
2016
2081
2020
2023
1860
1777
1730
1680
1704
1744
1774
1787
1841
1833
1714
1691
1718
1669
1715
2197
3481
4095
4095
3218
2128
1663
1493
1426
1413
1427
1474
1535
1593
1621
1682
1671
1600
1585
1622
1632
1710
1747
1713
1697
1705
1777
1776
1789
1805
1788
1803
1801
1843
1866
1799
1851
1861
1789
1785
1808
1808
1840
1847
1870
1847
1929
1905
1858
1840
1890
1967
1966
2025
2086
2047
2062
1906
1793
1773
1733
1743
1775
1801
1847
1778
1761
1755
1789
1759
1737
1731
1902
2768
4095
4095
4095
2791
1954
1573
1421
1429
1473
1466
1502
1584
1614
1573
1594
1627
1616
1639
1627
1630
1699
1717
1680
1618
1675
1765
1742
1759
1808
1815
1827
1877
1885
1829
1838
1831
1751
1791
1834
1824
1837
1835
1856
1867
1944
1890
1808
1824
1871
1921
1939
1971
2019
2092
2039
1891
1792
1853
1807
1776
1826
1794
1774
1757
1750
1798
1750
1781
1781
1766
1737
1969
3003
4095
4095
4095
2909
2032
1529
1401
1433
1406
1431
1459
1458
1490
1488
1575
1598
1603
1683
1648
1621
1659
1712
1758
1669
1678
1722
1809
1808
1757
1808
1819
1776
1779
1762
1774
1787
1831
1766
1712
1776
1855
1841
1808
1786
1847
1862
1828
1834
1814
1863
1917
1863
1883
1965
2002
2032
1973
1915
1819
1791
1730
1719
1787
1757
1723
1728
1775
1790
1754
1806
1781
1713
1735
2016
3202
4095
4095
4095
2849
1990
1535
1349
1329
1408
1470
1424
1462
1580
1586
1573
1601
1613
1629
1680
1696
1616
1649
1739
1729
1719
1717
1778
1811
1790
1838
1799
1764
1771
1749
1798
1783
1718
1761
1777
1839
1844
1791
1815
1824
1803
1813
1809
1855
1859
1855
1818
1857
1957
1951
1995
2032
2073
1961
1800
1818
1777
1776
1797
1776
1781
1767
1813
1754
1737
1743
1755
1808
1803
1802
2176
3317
4095
4095
3519
2398
1776
1467
1398
1451
1585
1570
1535
1526
1520
1558
1594
1627
1705
1693
1657
1655
1648
1677
1691
1754
1697
1790
1827
1790
1804
1802
1840
1799
1812
1808
1840
1841
1803
1781
1792
1801
1855
1833
1823
1847
1870
1882
1904
1828
1855
1887
1904
1947
1981
2009
2078
2032
1955
1929
1845
1789
1746
1781
1794
1797
1769
1802
1801
1780
1730
1763
1833
1808
1759
2101
3475
4095
4095
3758
2463
1872
1555
1418
1431
1483
1518
1568
1590
1622
1633
1637
1619
1599
1639
1662
1669
1738
1721
1718
1765
1671
1678
1721
1783
1919
1881
1856
1865
1821
1808
1789
1829
1830
1862
1819
1811
1875
1897
1903
1886
1888
1882
1855
1837
1911
1899
1938
1969
2000
2105
2146
2007
1870
1833
1835
1791
1794
1808
1799
1757
1744
1786
1831
1773
1767
1777
1810
1823
2022
3104
4095
4095
4095
2942
2046
1614
1466
1391
1360
1425
1434
1470
1520
1573
1626
1675
1683
1671
1625
1616
1605
1658
1711
1675
1699
1774
1823
1807
1744
1770
1755
1823
1826
1759
1771
1759
1786
1788
1743
1783
1794
1837
1859
1808
1803
1841
1840
1813
1804
1841
1821
1920
1930
1883
1961
2001
2026
1947
1834
1840
1773
1723
1711
1775
1810
1733
1714
1763
1757
1753
1744
1758
1789
1690
1947
3229
4095
4095
4095
2886
1961
1503
1360
1302
1296
1379
1476
1472
1501
1504
1573
1659
1622
1535
1535
1631
1642
1616
1646
1712
1711
1757
1749
1757
1742
1712
1744
1750
1759
1799
1773
1755
1718
1712
1741
1742
1771
1806
1770
1776
1803
1868
1795
1808
1807
1764
1818
1901
1914
1947
1986
2009
1940
1863
1782
1716
1712
1754
1737
1719
1712
1738
1712
1762
1792
1709
1741
1726
1690
1919
2986
4095
4095
4095
2691
1829
1511
1369
1320
1409
1438
1479
1488
1525
1637
1584
1515
1580
1692
1616
1569
1597
1685
1669
1654
1719
1722
1761
1794
1837
1843
1813
1776
1797
1791
1726
1790
1830
1856
1799
1721
1779
1847
1857
1847
1837
1806
1837
1838
1863
1933
1973
1991
2015
2087
1996
1869
1830
1777
1680
1691
1698
1754
1776
1774
1768
1747
1790
1777
1798
1677
1691
2106
3401
4095
4095
4080
2595
1872
1535
1392
1354
1363
1424
1473
1535
1598
1628
1693
1762
1637
1525
1535
1580
1611
1637
1690
1695
1710
1818
1791
1786
1792
1819
1843
1836
1840
1834
1806
1825
1845
1920
1872
1830
1842
1826
1840
1843
1869
1877
1909
1982
2059
2005
1977
2032
2043
1984
1936
1869
1788
1819
1823
1793
1744
1751
1801
1776
1758
1802
1791
1744
1744
2032
3344
4095
4095
4095
3126
2177
1581
1345
1285
1274
1415
1457
1488
1519
1566
1616
1619
1613
1661
1639
1632
1631
1697
1641
1649
1735
1769
1787
1825
1894
1885
1782
1782
1789
1796
1807
1817
1857
1835
1872
1872
1806
1795
1793
1814
1845
1863
1905
1947
1962
1962
2005
2123
2146
2042
1904
1797
1747
1751
1746
1750
1728
1772
1793
1829
1840
1734
1708
1682
1675
1967
3055
4095
4095
4095
3355
2209
1501
1233
1217
1298
1361
1404
1437
1535
1568
1534
1595
1579
1581
1575
1562
1616
1701
1734
1666
1651
1706
1771
1785
1775
1755
1806
1788
1786
1749
1687
1713
1731
1772
1758
1761
1817
1805
1783
1791
1820
1833
1838
1877
1875
1878
1924
2007
2017
1937
1853
1792
1717
1730
1735
1690
1712
1680
1701
1745
1749
1744
1759
1677
1708
2043
3330
4095
4095
3634
2429
1762
1400
1335
1374
1403
1437
1486
1535
1535
1535
1626
1633
1585
1563
1597
1622
1625
1723
1726
1709
1716
1730
1776
1774
1797
1793
1796
1822
1853
1809
1813
1777
1792
1839
1856
1822
1796
1814
1885
1850
1817
1826
1935
1955
1946
2009
2083
1981
1953
1919
1787
1702
1717
1763
1769
1714
1675
1753
1854
1819
1781
1755
1668
1665
2150
3571
4095
4095
3511
2301
1719
1500
1463
1469
1466
1481
1525
1575
1658
1695
1615
1587
1636
1671
1627
1627
1665
1649
1678
1683
1742
1803
1776
1781
1856
1839
1815
1840
1889
1872
1829
1808
1826
1852
1878
1892
1841
1807
1871
1919
1935
1947
1937
1951
2032
2113
2069
2004
1959
1827
1778
1779
1783
1781
1806
1761
1747
1761
1798
1839
1872
1815
1707
1914
3053
4095
4095
4095
3050
2144
1651
1434
1424
1413
1383
1449
1501
1535
1566
1616
1648
1681
1663
1582
1590
1623
1662
1698
1713
1693
1746
1830
1810
1770
1771
1848
1831
1858
1837
1791
1823
1857
1889
1857
1798
1791
1845
1856
1872
1875
1904
1914
1987
2005
2011
2021
1971
1914
1838
1835
1825
1796
1799
1813
1723
1735
1750
1771
1734
1745
1790
1716
1829
2482
4095
4095
4095
3787
2431
1735
1387
1277
1315
1355
1439
1518
1520
1519
1582
1606
1607
1617
1644
1645
1616
1654
1677
1710
1684
1681
1793
1775
1783
1750
1758
1801
1787
1781
1759
1786
1806
1776
1790
1770
1779
1791
1826
1807
1785
1801
1869
1895
1945
1985
1969
1999
1921
1881
1840
1789
1798
1741
1714
1709
1697
1734
1735
1707
1744
1713
1714
1699
1767
2161
3555
4095
4095
3929
2502
1781
1423
1292
1271
1333
1354
1449
1497
1451
1479
1490
1535
1601
1621
1613
1610
1619
1631
1638
1648
1718
1714
1713
1744
1827
1776
1779
1762
1745
1726
1743
1797
1776
1792
1819
1771
1755
1802
1817
1837
1790
1822
1846
1872
1911
1984
2064
2055
2009
1901
1758
1725
1683
1701
1727
1721
1750
1766
1760
1786
1790
1782
1743
1682
1839
2656
4095
4095
4095
2843
1983
1562
1422
1433
1427
1428
1472
1495
1518
1566
1611
1584
1598
1667
1649
1617
1642
1620
1649
1680
1680
1728
1744
1790
1827
1859
1882
1870
1851
1766
1762
1809
1834
1840
1818
1866
1939
1856
1872
1851
1895
1898
1918
1981
1967
1984
2038
2093
2021
1938
1877
1886
1818
1727
1728
1769
1789
1790
1793
1790
1793
1854
1777
1692
1830
2678
4095
4095
4095
3312
2211
1666
1467
1426
1397
1455
1447
1488
1535
1583
1581
1616
1654
1695
1618
1602
1684
1614
1608
1646
1696
1699
1699
1786
1871
1873
1840
1823
1801
1815
1806
1808
1797
1810
1854
1830
1904
1918
1867
1839
1850
1840
1815
1863
1919
1967
1974
1978
2125
2033
1951
1905
1822
1776
1771
1743
1789
1792
1793
1761
1779
1796
1772
1762
1746
1793
2000
3101
4095
4095
4095
3068
2094
1535
1356
1313
1369
1420
1525
1563
1514
1535
1535
1580
1615
1647
1662
1640
1662
1716
1712
1664
1670
1744
1728
1711
1776
1751
1760
1773
1791
1800
1795
1799
1753
1755
1779
1748
1781
1793
1817
1865
1867
1872
1808
1783
1839
1917
1895
1883
1949
2032
1989
1939
1855
1794
1751
1743
1755
1723
1742
1777
1738
1790
1778
1744
1712
1683
1749
2123
3498
4095
4095
4095
2736
1811
1439
1361
1347
1325
1388
1456
1485
1535
1553
1535
1574
1605
1599
1605
1613
1611
1632
1674
1712
1728
1732
1723
1754
1744
1758
1791
1762
1776
1707
1786
1776
1718
1695
1719
1757
1781
1827
1841
1765
1787
1794
1776
1790
1852
1856
1871
1930
2000
2020
1932
1872
1759
1726
1754
1746
1707
1694
1712
1792
1765
1729
1739
1773
1735
1697
1776
2262
3729
4095
4095
3229
2172
1700
1477
1389
1401
1456
1506
1535
1535
1520
1498
1567
1609
1642
1650
1655
1645
1643
1664
1699
1685
1717
1739
1786
1806
1767
1811
1813
1827
1844
1776
1792
1792
1782
1808
1768
1840
1814
1821
1835
1861
1871
1858
1853
1831
1891
1984
1968
2000
2025
2026
2005
1982
1875
1780
1745
1821
1757
1755
1773
1750
1783
1777
1791
1791
1773
1760
1795
2429
4095
4095
4095
3511
2315
1705
1447
1401
1424
1439
1493
1503
1535
1581
1584
1587
1598
1679
1645
1635
1649
1643
1631
1682
1744
1681
1723
1825
1855
1851
1846
1854
1851
1820
1843
1841
1821
1826
1839
1897
1872
1875
1872
1872
1886
1894
1892
1875
1886
1943
1984
1971
2034
2114
2131
2064
1885
1815
1755
1776
1799
1811
1765
1789
1808
1823
1835
1818
1779
1759
1725
1965
3167
4095
4095
4095
3211
2113
1535
1347
1315
1371
1424
1463
1557
1593
1590
1616
1599
1631
1666
1570
1584
1648
1680
1679
1695
1734
1776
1820
1871
1773
1728
1802
1802
1803
1789
1811
1803
1841
1859
1878
1829
1759
1806
1837
1827
1853
1874
1878
1905
1858
1875
1916
1904
1897
1941
2091
2078
1970
1897
1808
1764
1791
1775
1719
1721
1776
1772
1778
1785
1796
1831
1804
1699
1919
3099
4095
4095
4095
3311
2177
1535
1281
1271
1323
1390
1429
1421
1469
1502
1535
1598
1626
1672
1662
1666
1674
1677
1674
1658
1729
1763
1710
1725
1789
1808
1761
1753
1797
1781
1769
1763
1746
1744
1723
1747
1787
1781
1803
1827
1862
1857
1831
1841
1798
1811
1867
1872
1919
1997
2043
1983
1904
1862
1779
1713
1718
1763
1782
1744
1744
1744
1725
1755
1782
1792
1753
1712
2176
3727
4095
4095
3889
2547
1771
1424
1325
1269
1323
1385
1460
1506
1488
1518
1567
1603
1705
1676
1592
1569
1594
1633
1670
1716
1712
1713
1757
1791
1801
1838
1846
1836
1733
1744
1723
1713
1757
1774
1793
1837
1813
1803
1808
1863
1823
1744
1781
1811
1843
1885
1957
2007
1987
2034
1991
1908
1867
1778
1698
1694
1698
1730
1731
1757
1761
1743
1795
1778
1774
1765
1723
2208
3825
4095
4095
3407
2281
1718
1453
1433
1403
1392
1386
1469
1514
1517
1572
1590
1617
1622
1633
1601
1574
1623
1660
1631
1667
1711
1749
1807
1822
1827
1810
1838
1839
1792
1787
1811
1847
1842
1793
1840
1851
1847
1839
1840
1871
1922
1871
1854
1907
1993
1973
1946
2000
2086
2097
2004
1919
1814
1742
1778
1744
1739
1771
1767
1749
1791
1877
1808
1734
1706
1798
2413
4095
4095
4095
3664
2399
1765
1492
1413
1375
1451
1446
1463
1535
1554
1568
1600
1659
1715
1616
1572
1599
1600
1662
1680
1669
1680
1749
1839
1855
1847
1794
1808
1822
1793
1832
1867
1876
1862
1815
1810
1851
1883
1845
1808
1840
1873
1883
1862
1914
1981
1961
1957
2023
2075
2014
1934
1878
1819
1803
1807
1761
1747
1737
1758
1778
1782
1776
1794
1798
1811
1846
2631
4095
4095
4095
3609
2326
1669
1373
1354
1367
1406
1459
1424
1454
1489
1535
1585
1645
1651
1603
1621
1615
1663
1681
1643
1664
1753
1737
1764
1771
1802
1805
1739
1790
1799
1776
1773
1747
1749
1770
1811
1841
1786
1812
1866
1812
1806
1830
1853
1870
1895
1991
2007
2031
1947
1883
1859
1776
1776
1744
1742
1730
1694
1754
1761
1792
1805
1767
1759
1685
1791
2671
4095
4095
4095
3339
2229
1600
1381
1334
1339
1389
1430
1457
1481
1509
1604
1571
1559
1616
1652
1630
1621
1655
1681
1726
1699
1744
1810
1791
1751
1733
1746
1773
1794
1776
1755
1720
1754
1770
1791
1777
1773
1815
1795
1770
1761
1759
1814
1847
1917
1935
1927
2007
2029
1905
1850
1751
1754
1734
1726
1778
1772
1734
1719
1730
1742
1704
1703
1659
1648
1940
2962
4095
4095
3723
2534
1841
1535
1435
1344
1351
1424
1504
1520
1579
1600
1586
1629
1663
1648
1579
1583
1655
1607
1626
1680
1710
1779
1811
1797
1789
1808
1806
1762
1779
1741
1715
1774
1818
1818
1813
1855
1837
1779
1811
1821
1808
1823
1840
1904
1952
1961
2032
2086
2046
1930
1788
1749
1703
1738
1761
1747
1779
1787
1765
1749
1725
1727
1740
1697
1846
2699
4095
4095
4095
2820
2000
1667
1457
1388
1397
1447
1555
1590
1535
1553
1622
1693
1638
1653
1691
1659
1632
1639
1629
1683
1687
1727
1818
1856
1797
1818
1882
1888
1780
1797
1829
1863
1856
1834
1871
1829
1840
1861
1867
1840
1841
1878
1941
1984
1987
2043
2097
2071
1983
1950
1869
1840
1798
1808
1817
1785
1803
1728
1760
1747
1712
1769
1782
1776
1969
3031
4095
4095
4095
2842
1984
1601
1414
1393
1430
1495
1494
1535
1535
1570
1602
1601
1614
1633
1646
1664
1651
1627
1664
1687
1732
1715
1713
1747
1805
1818
1840
1862
1834
1817
1813
1825
1827
1847
1845
1863
1861
1820
1872
1877
1856
1866
1871
1875
1926
1939
1999
2074
2088
2057
1906
1827
1787
1802
1775
1730
1735
1779
1809
1793
1795
1808
1819
1801
1746
1974
3174
4095
4095
4095
2902
2006
1535
1424
1383
1401
1501
1527
1567
1555
1499
1568
1627
1620
1605
1627
1671
1707
1710
1668
1671
1725
1719
1737
1774
1813
1888
1911
1856
1733
1747
1803
1712
1726
1775
1779
1829
1814
1840
1847
1879
1850
1846
1841
1851
1902
1910
1934
1989
2044
1983
1933
1849
1819
1794
1759
1718
1712
1766
1776
1759
1773
1771
1780
1776
1706
1851
2689
4095
4095
4095
3202
2142
1648
1480
1359
1390
1505
1454
1462
1495
1520
1523
1557
1610
1631
1670
1686
1685
1680
1682
1664
1662
1695
1717
1727
1780
1808
1820
1822
1782
1744
1714
1761
1829
1808
1739
1758
1762
1749
1801
1866
1862
1819
1818
1817
1895
1917
1919
1926
1978
1998
1930
1852
1785
1725
1734
1718
1738
1749
1746
1755
1718
1718
1734
1770
1706
1666
2132
3623
4095
4095
3450
2328
1746
1472
1389
1344
1410
1455
1445
1510
1572
1573
1605
1634
1633
1671
1637
1599
1624
1654
1680
1714
1761
1769
1808
1790
1775
1808
1803
1776
1763
1755
1757
1748
1803
1829
1779
1741
1811
1871
1792
1806
1867
1856
1840
1875
1930
1945
1969
2039
2094
1984
1857
1839
1827
1765
1775
1739
1763
1739
1694
1741
1786
1744
1766
1796
1746
1935
2908
4095
4095
3951
2608
1881
1535
1407
1450
1511
1483
1470
1561
1580
1525
1575
1644
1674
1675
1666
1680
1676
1615
1646
1657
1679
1712
1739
1829
1888
1871
1823
1792
1844
1840
1819
1830
1814
1840
1838
1837
1867
1843
1906
1873
1841
1842
1907
1990
1921
1889
1979
2078
2155
2057
1973
1926
1794
1791
1812
1774
1723
1746
1771
1769
1846
1879
1794
1759
1743
1856
2735
4095
4095
4095
3088
2171
1663
1493
1460
1455
1448
1486
1517
1569
1570
1606
1618
1598
1658
1698
1691
1673
1662
1650
1653
1693
1717
1738
1797
1822
1883
1825
1806
1823
1840
1799
1742
1774
1811
1834
1856
1893
1898
1853
1855
1859
1853
1828
1819
1856
1949
1984
1953
2062
2084
2014
1922
1918
1846
1792
1795
1799
1810
1797
1829
1778
1782
1755
1774
1780
1759
1745
2070
3461
4095
4095
4095
2939
2014
1467
1302
1303
1411
1441
1498
1535
1525
1521
1583
1693
1665
1582
1585
1609
1664
1712
1708
1707
1717
1783
1796
1776
1744
1755
1778
1788
1754
1776
1771
1749
1785
1792
1844
1715
1709
1788
1821
1803
1808
1838
1840
1837
1859
1878
1885
1865
1889
2021
2019
1925
1873
1809
1820
1760
1735
1731
1712
1777
1767
1758
1765
1750
1776
1741
1693
1851
2677
4095
4095
4095
3136
2099
1603
1413
1401
1405
1472
1503
1486
1515
1487
1520
1586
1563
1600
1666
1687
1690
1693
1722
1684
1682
1680
1706
1759
1807
1786
1777
1794
1745
1707
1687
1711
1773
1767
1730
1713
1775
1809
1817
1787
1780
1755
1806
1835
1837
1821
1816
1856
1869
1950
2011
1984
1915
1877
1803
1761
1774
1742
1707
1731
1745
1776
1746
1711
1705
1737
1775
1681
1786
2393
3827
4095
4063
2864
2007
1629
1533
1472
1463
1514
1503
1505
1575
1626
1601
1581
1678
1673
1637
1637
1678
1731
1669
1690
1706
1712
1762
1805
1843
1780
1820
1793
1723
1763
1809
1775
1767
1793
1801
1829
1823
1778
1808
1817
1808
1831
1847
1826
1855
1862
1899
1937
1919
1941
2014
1991
1943
1893
1808
1763
1748
1808
1743
1707
1753
1802
1775
1763
1763
1792
1741
1697
1904
2906
4095
4095
3829
2527
1888
1593
1493
1514
1456
1493
1566
1565
1568
1619
1663
1650
1601
1648
1655
1613
1599
1653
1702
1701
1728
1820
1765
1759
1791
1847
1835
1808
1792
1820
1835
1825
1810
1819
1823
1819
1837
1877
1891
1856
1856
1842
1852
1872
1865
1932
1981
1979
2000
2030
2065
2042
1954
1886
1825
1808
1807
1771
1808
1810
1780
1802
1779
1859
1836
1807
1739
1746
2276
3885
4095
4095
3707
2447
1822
1587
1488
1429
1456
1520
1594
1600
1556
1630
1664
1688
1667
1660
1675
1692
1744
1729
1705
1717
1744
1757
1761
1858
1831
1783
1840
1851
1799
1787
1759
1759
1808
1865
1845
1776
1796
1831
1841
1843
1843
1872
1858
1853
1898
1904
1936
1907
1915
1937
1950
2010
1974
1878
1856
1840
1791
1754
1787
1786
1746
1802
1791
1744
1763
1764
1794
1767
1787
2262
3888
4095
4095
3651
2381
1739
1472
1431
1451
1474
1488
1585
1584
1479
1513
1559
1631
1644
1654
1745
1778
1694
1664
1695
1712
1718
1797
1786
1793
1822
1860
1808
1781
1783
1744
1721
1732
1761
1811
1836
1760
1779
1794
1821
1863
1808
1790
1794
1807
1840
1849
1902
1899
1886
1904
1957
1994
1968
1913
1863
1809
1750
1776
1758
1792
1738
1745
1778
1781
1743
1743
1783
1744
1694
1839
2495
4095
4095
4095
2901
2064
1643
1479
1408
1409
1436
1490
1559
1601
1616
1584
1617
1663
1627
1600
1589
1648
1669
1691
1744
1730
1747
1783
1830
1776
1745
1743
1763
1797
1770
1731
1755
1744
1759
1802
1783
1757
1763
1784
1798
1850
1840
1792
1808
1803
1805
1943
1878
1840
1872
1943
2034
1981
1873
1831
1808
1783
1735
1709
1747
1711
1759
1774
1747
1749
1780
1836
1751
1721
2128
3356
4095
4095
3189
2186
1740
1600
1491
1481
1525
1535
1574
1564
1617
1647
1630
1643
1662
1708
1659
1636
1648
1711
1723
1702
1697
1759
1795
1826
1841
1824
1823
1828
1840
1798
1789
1776
1788
1799
1789
1809
1845
1844
1883
1888
1835
1853
1876
1893
1872
1850
1920
1939
1997
2069
2063
1982
1936
1881
1836
1771
1756
1719
1759
1789
1790
1807
1793
1801
1844
1767
1680
1818
2533
4095
4095
4095
2898
2066
1712
1535
1502
1558
1503
1485
1560
1589
1618
1631
1658
1639
1655
1685
1674
1648
1628
1671
1697
1748
1833
1748
1785
1854
1807
1808
1808
1796
1809
1857
1862
1878
1840
1805
1809
1757
1777
1831
1840
1855
1899
1915
1904
1878
1831
1912
1904
1886
1906
2005
2067
1974
1945
1910
1890
1773
1783
1763
1741
1734
1782
1763
1776
1808
1798
1798
1771
1829
2379
4095
4095
4095
3392
2283
1759
1520
1446
1434
1456
1520
1587
1579
1570
1617
1638
1659
1675
1694
1673
1664
1700
1722
1723
1719
1701
1762
1822
1872
1793
1808
1824
1793
1765
1714
1744
1740
1771
1808
1800
1777
1809
1818
1852
1807
1785
1850
1807
1827
1805
1819
1914
1917
1883
1929
2000
1999
1922
1883
1817
1776
1728
1733
1773
1774
1770
1767
1754
1744
1776
1788
1744
1703
1808
2554
4095
4095
4095
3216
2145
1599
1428
1397
1409
1462
1520
1524
1558
1527
1522
1563
1632
1616
1624
1633
1696
1671
1713
1743
1747
1731
1731
1738
1766
1789
1759
1789
1803
1843
1691
1679
1693
1744
1807
1726
1735
1781
1799
1831
1894
1810
1794
1770
1827
1843
1824
1853
1870
1910
1964
2070
2018
1858
1777
1761
1739
1760
1728
1722
1712
1743
1761
1743
1728
1739
1758
1715
1685
2009
2945
4095
4095
3893
2559
1835
1535
1415
1360
1413
1469
1520
1472
1475
1535
1569
1617
1648
1664
1683
1600
1687
1685
1623
1701
1734
1766
1776
1777
1792
1754
1800
1857
1797
1743
1742
1798
1745
1773
1781
1778
1798
1813
1821
1882
1808
1793
1823
1839
1879
1834
1872
1934
1936
1966
2000
2070
1931
1863
1808
1761
1759
1773
1761
1780
1769
1759
1718
1765
1825
1757
1795
1746
1749
2251
3773
4095
4095
3263
2250
1748
1523
1507
1440
1458
1515
1615
1664
1645
1602
1606
1682
1677
1627
1652
1663
1708
1714
1722
1773
1712
1760
1822
1776
1810
1840
1871
1891
1911
1885
1771
1786
1877
1808
1797
1833
1883
1925
1919
1865
1872
1911
1889
1856
1857
1869
1974
2027
1924
1983
2116
2096
1958
1885
1821
1807
1828
1827
1821
1776
1712
1764
1825
1840
1859
1818
1838
1776
1873
2843
4095
4095
4095
2945
2105
1661
1494
1462
1456
1489
1520
1571
1575
1566
1617
1642
1687
1691
1680
1673
1712
1702
1664
1683
1766
1809
1820
1781
1819
1849
1803
1801
1779
1778
1809
1814
1823
1783
1773
1799
1808
1790
1776
1809
1855
1882
1919
1807
1808
1846
1847
1909
1943
1930
1936
1958
2037
2004
1875
1850
1814
1790
1775
1776
1757
1722
1727
1769
1754
1776
1843
1830
1786
1719
1947
3085
4095
4095
3971
2617
1883
1585
1443
1431
1515
1506
1553
1599
1583
1559
1599
1655
1668
1651
1660
1680
1721
1726
1772
1768
1777
1811
1735
1729
1775
1783
1839
1785
1755
1790
1793
1765
1744
1715
1742
1735
1744
1742
1788
1801
1738
1748
1778
1765
1792
1795
1777
1755
1813
1883
1855
1891
1953
1957
1936
1782
1787
1726
1717
1728
1701
1733
1741
1700
1712
1717
1774
1803
1783
1730
1801
2416
3823
4095
3987
2739
1984
1657
1562
1527
1498
1509
1475
1455
1534
1582
1606
1609
1638
1680
1728
1710
1647
1655
1723
1723
1747
1709
1725
1797
1811
1839
1808
1812
1827
1729
1714
1733
1735
1767
1790
1837
1775
1767
1831
1795
1775
1747
1822
1842
1813
1841
1872
1863
1873
1895
1905
1964
1968
1983
1931
1856
1795
1794
1786
1783
1822
1762
1712
1726
1723
1775
1779
1781
1801
1744
1757
2119
3237
4095
4095
3248
2251
1824
1619
1470
1520
1554
1629
1631
1594
1607
1584
1612
1680
1680
1717
1728
1731
1690
1726
1753
1741
1712
1696
1759
1857
1872
1882
1906
1875
1840
1832
1807
1762
1760
1819
1828
1842
1871
1877
1875
1905
1889
1862
1851
1842
1823
1858
1915
1985
1971
1983
2093
2067
1938
1936
1858
1808
1798
1776
1754
1750
1785
1853
1823
1830
1769
1757
1794
1789
1744
1935
2929
4095
4095
4095
2693
1989
1667
1481
1456
1490
1529
1535
1587
1653
1693
1637
1686
1675
1666
1661
1661
1677
1726
1777
1783
1826
1808
1766
1846
1830
1808
1788
1791
1867
1838
1843
1842
1776
1773
1743
1789
1828
1807
1849
1872
1863
1831
1837
1840
1855
1849
1887
1956
1930
1846
1937
2085
2003
2005
1929
1849
1747
1727
1735
1743
1739
1793
1835
1776
1712
1776
1849
1767
1744
1840
2613
4095
4095
4095
3065
2111
1648
1447
1411
1423
1436
1514
1566
1664
1667
1577
1567
1646
1676
1666
1681
1786
1753
1747
1739
1772
1730
1725
1872
1806
1776
1790
1807
1811
1748
1694
1692
1669
1667
1691
1797
1819
1776
1755
1744
1780
1751
1712
1821
1781
1747
1785
1867
1977
1925
1938
1899
1803
1787
1776
1808
1735
1680
1697
1669
1737
1685
1670
1739
1728
1818
1693
1610
1856
2808
4095
4095
3580
2406
1881
1535
1451
1488
1456
1424
1488
1568
1615
1616
1535
1602
1667
1659
1611
1631
1663
1733
1729
1675
1704
1786
1779
1799
1836
1759
1744
1799
1828
1731
1642
1670
1698
1743
1840
1774
1781
1851
1776
1722
1722
1769
1826
1856
1886
1915
1914
1998
2006
1957
1904
1835
1777
1762
1771
1758
1769
1808
1774
1799
1722
1771
1742
1680
1738
1710
1789
2276
3792
4095
4095
3168
2305
1712
1403
1360
1458
1493
1488
1558
1695
1716
1602
1602
1607
1601
1680
1738
1738
1717
1744
1755
1741
1758
1771
1727
1763
1825
1840
1930
1854
1798
1788
1750
1765
1724
1789
1791
1853
1886
1869
1834
1815
1808
1858
1943
1963
1901
1922
2000
2071
2097
1986
1918
1901
1806
1733
1705
1730
1782
1769
1776
1810
1794
1808
1791
1777
1701
1877
2850
4095
4095
3866
2629
2030
1721
1583
1573
1522
1504
1487
1569
1643
1702
1809
1703
1664
1741
1759
1779
1782
1695
1733
1793
1771
1807
1867
1899
1897
1918
1898
1865
1844
1819
1765
1771
1836
1878
1843
1790
1779
1861
1904
1867
1805
1808
1827
1840
1904
1978
2046
2125
2102
1950
1888
1762
1728
1725
1726
1782
1773
1776
1771
1777
1815
1693
1714
1722
1719
1983
2857
4095
4095
3243
2320
1845
1636
1523
1470
1517
1584
1649
1654
1658
1687
1687
1765
1749
1679
1669
1679
1697
1755
1811
1783
1761
1831
1911
1891
1809
1808
1818
1833
1826
1809
1768
1823
1883
1842
1772
1725
1825
1809
1794
1823
1829
1891
1984
1967
1931
2002
2064
1984
1920
1841
1817
1776
1765
1815
1734
1707
1736
1776
1840
1831
1801
1770
1653
1728
2257
3641
4095
4023
2829
2095
1719
1567
1521
1535
1578
1579
1662
1659
1658
1647
1631
1626
1682
1712
1668
1646
1712
1746
1791
1836
1777
1794
1773
1801
1798
1803
1844
1840
1824
1749
1786
1815
1807
1776
1763
1774
1777
1836
1883
1856
1872
1922
1955
1963
2026
2016
1958
1874
1854
1795
1726
1721
1722
1751
1776
1795
1807
1776
1727
1792
1762
1606
1773
2708
4095
4095
3632
2429
1857
1713
1591
1506
1503
1492
1591
1617
1623
1616
1663
1689
1728
1755
1680
1680
1701
1733
1723
1725
1813
1856
1837
1830
1819
1814
1844
1794
1759
1785
1854
1851
1747
1740
1790
1795
1826
1841
1866
1840
1954
1968
1854
1903
2017
1993
1958
1901
1885
1831
1809
1744
1707
1725
1777
1790
1795
1795
1782
1717
1677
1672
1931
2928
4095
4095
3680
2502
1894
1635
1535
1502
1561
1530
1515
1585
1623
1654
1709
1745
1647
1627
1635
1703
1727
1785
1775
1744
1791
1791
1801
1793
1839
1808
1741
1747
1808
1754
1788
1762
1802
1805
1741
1727
1776
1778
1789
1811
1870
1905
1941
2001
1926
1953
1870
1833
1801
1762
1747
1757
1822
1793
1700
1744
1655
1689
1713
1716
1745
1679
1838
2684
4095
4095
3619
2441
1841
1580
1518
1520
1567
1603
1564
1498
1535
1535
1565
1642
1639
1611
1675
1702
1645
1663
1705
1715
1723
1778
1787
1777
1786
1764
1779
1761
1710
1731
1718
1760
1743
1680
1710
1803
1773
1744
1767
1815
1783
1818
1863
1861
1889
1929
1965
1985
1887
1840
1765
1739
1776
1727
1680
1691
1648
1712
1742
1742
1743
1742
1745
1633
1846
2863
4095
4095
3306
2332
1882
1587
1491
1517
1577
1585
1567
1594
1621
1665
1616
1599
1666
1722
1699
1684
1668
1705
1737
1749
1741
1744
1817
1894
1823
1765
1844
1842
1795
1778
1782
1806
1831
1803
1791
1799
1813
1847
1854
1840
1817
1941
1927
1904
1942
1938
2015
2109
2031
1975
1866
1825
1837
1804
1746
1750
1815
1765
1723
1770
1793
1783
1839
1759
1738
2112
3338
4095
4095
3451
2337
1846
1589
1519
1526
1535
1565
1621
1634
1662
1649
1603
1682
1695
1664
1639
1662
1749
1741
1704
1702
1765
1792
1776
1828
1840
1885
1916
1849
1815
1772
1760
1820
1824
1827
1822
1839
1858
1823
1890
1831
1815
1840
1830
1887
1904
1946
1991
1937
1977
2035
2010
1965
1888
1856
1834
1786
1798
1750
1765
1779
1819
1798
1781
1823
1767
1761
1756
1775
2203
3648
4095
4095
3553
2366
1835
1609
1482
1470
1520
1558
1563
1600
1614
1698
1688
1625
1643
1680
1699
1672
1687
1703
1774
1782
1733
1754
1834
1853
1846
1786
1783
1788
1803
1811
1801
1789
1805
1770
1808
1788
1819
1821
1841
1829
1831
1840
1838
1843
1858
1853
1899
1863
1840
1879
1904
1899
1983
2064
1991
1909
1872
1847
1816
1793
1738
1762
1776
1750
1737
1754
1773
1819
1776
1791
1776
1830
2379
3970
4095
4095
3163
2191
1683
1535
1533
1471
1458
1495
1557
1615
1689
1629
1585
1601
1613
1663
1743
1680
1678
1711
1737
1776
1776
1830
1831
1767
1772
1774
1777
1767
1815
1786
1804
1787
1718
1711
1761
1791
1779
1776
1795
1836
1839
1861
1822
1831
1811
1792
1791
1833
1898
1907
1953
2017
2001
1984
1894
1759
1728
1734
1744
1753
1745
1769
1792
1775
1779
1799
1813
1791
1701
1686
1885
2827
4095
4095
4095
2743
1983
1620
1511
1485
1457
1471
1493
1555
1587
1555
1598
1657
1664
1707
1666
1680
1635
1661
1719
1760
1774
1776
1797
1808
1802
1857
1800
1718
1726
1758
1765
1750
1759
1744
1774
1760
1743
1817
1841
1747
1765
1782
1813
1826
1839
1866
1821
1787
1808
1783
1804
1867
1893
1915
1962
2002
1989
1914
1866
1759
1728
1709
1739
1801
1744
1735
1742
1775
1777
1770
1834
1739
1629
1904
2782
4095
4095
3679
2490
1857
1594
1535
1527
1506
1441
1489
1530
1584
1591
1570
1648
1631
1633
1682
1695
1658
1629
1683
1755
1766
1822
1821
1825
1840
1790
1800
1744
1753
1775
1776
1792
1726
1751
1776
1749
1803
1840
1792
1787
1758
1800
1832
1807
1807
1821
1894
1799
1804
1889
1905
1939
1962
2019
1988
1862
1809
1780
1754
1755
1755
1806
1775
1751
1739
1712
1744
1778
1791
1682
1731
2320
3715
4095
4095
2925
2090
1687
1522
1496
1491
1535
1584
1642
1612
1592
1614
1618
1663
1689
1693
1715
1712
1728
1742
1723
1728
1808
1776
1753
1821
1855
1822
1794
1790
1806
1814
1793
1799
1851
1861
1793
1765
1795
1815
1840
1869
1861
1843
1858
1872
1893
1859
1866
1885
1932
1955
1950
2006
2089
2010
1955
1873
1860
1819
1781
1792
1779
1792
1793
1779
1813
1812
1811
1814
1738
1906
2723
4095
4095
4095
2832
2047
1680
1563
1499
1489
1530
1586
1591
1585
1629
1650
1664
1674
1706
1712
1702
1728
1712
1713
1727
1727
1751
1802
1840
1845
1824
1846
1857
1842
1831
1811
1811
1806
1776
1822
1824
1831
1838
1859
1909
1893
1827
1783
1810
1866
1853
1858
1854
1857
1874
1910
1951
1941
1967
2047
2037
1967
1898
1816
1778
1773
1764
1725
1718
1761
1777
1797
1787
1819
1810
1776
1840
2487
4095
4095
4095
3329
2288
1691
1445
1372
1424
1427
1456
1505
1507
1570
1609
1654
1639
1607
1646
1676
1683
1697
1711
1737
1722
1714
1771
1782
1845
1839
1840
1835
1776
1793
1775
1751
1760
1743
1759
1805
1813
1819
1815
1797
1781
1818
1827
1802
1797
1825
1851
1861
1831
1828
1842
1892
1925
1933
2017
2010
1947
1895
1802
1781
1780
1755
1759
1742
1769
1776
1779
1786
1791
1798
1762
1756
2113
3311
4095
4095
3535
2385
1802
1565
1488
1478
1506
1523
1535
1570
1599
1621
1657
1650
1648
1648
1669
1669
1702
1717
1730
1744
1733
1766
1851
1826
1773
1774
1821
1801
1759
1767
1780
1755
1745
1761
1796
1758
1755
1771
1802
1810
1776
1819
1826
1839
1821
1779
1809
1818
1847
1887
1872
1905
1993
1998
1920
1850
1785
1777
1774
1791
1725
1713
1711
1714
1758
1755
1776
1767
1762
1728
1840
2619
4095
4095
3787
2559
1886
1593
1487
1490
1498
1584
1535
1518
1559
1591
1613
1611
1627
1602
1626
1686
1655
1643
1717
1706
1702
1696
1719
1775
1808
1824
1815
1776
1818
1797
1753
1686
1712
1759
1751
1782
1810
1798
1783
1787
1853
1835
1797
1811
1830
1827
1808
1837
1893
1891
1938
2015
2009
1983
1905
1822
1783
1744
1755
1759
1759
1751
1766
1765
1761
1770
1793
1745
1689
1758
2422
4055
4095
4095
2895
2090
1694
1501
1461
1461
1479
1511
1589
1621
1605
1646
1647
1674
1728
1681
1659
1666
1712
1712
1708
1739
1749
1778
1854
1875
1877
1870
1835
1849
1825
1815
1813
1814
1821
1825
1869
1850
1827
1842
1850
1882
1890
1890
1925
1856
1883
1872
1919
1967
1949
2014
2094
2087
1987
1905
1854
1831
1791
1768
1794
1811
1785
1777
1805
1783
1826
1857
1808
1757
2058
3342
4095
4095
3901
2597
1923
1535
1438
1454
1470
1559
1557
1568
1601
1635
1677
1647
1638
1672
1693
1713
1714
1722
1727
1738
1741
1756
1803
1831
1856
1897
1841
1827
1822
1807
1810
1830
1815
1803
1794
1822
1841
1855
1878
1853
1853
1857
1859
1872
1872
1893
1873
1856
1902
1922
1966
1987
2055
2045
1952
1878
1813
1810
1791
1747
1754
1747
1749
1791
1761
1776
1774
1807
1755
1783
2355
4095
4095
4095
3613
2442
1748
1467
1411
1418
1435
1454
1507
1554
1584
1602
1584
1623
1664
1665
1651
1631
1666
1702
1741
1775
1745
1801
1846
1789
1801
1803
1790
1776
1767
1776
1742
1767
1777
1757
1783
1795
1777
1778
1759
1776
1808
1838
1819
1811
1831
1811
1843
1826
1808
1870
1869
1872
1903
1927
2000
1949
1899
1854
1793
1765
1729
1734
1755
1749
1744
1739
1770
1776
1776
1787
1714
1763
2267
3766
4095
4095
3295
2256
1680
1499
1414
1402
1431
1470
1509
1554
1574
1590
1590
1609
1627
1664
1678
1663
1674
1649
1690
1719
1746
1776
1805
1829
1806
1781
1793
1782
1778
1750
1729
1741
1744
1758
1738
1746
1757
1757
1779
1779
1785
1840
1827
1778
1789
1799
1831
1810
1818
1829
1875
1915
1941
1983
1952
1885
1837
1792
1742
1733
1727
1759
1748
1760
1744
1740
1763
1760
1778
1744
1701
1848
2543
4015
4095
3744
2666
1968
1654
1535
1458
1492
1506
1535
1556
1606
1639
1636
1648
1688
1677
1712
1702
1730
1680
1652
1707
1745
1790
1801
1822
1837
1844
1842
1843
1823
1808
1764
1763
1814
1826
1801
1778
1774
1786
1849
1846
1811
1855
1840
1808
1840
1863
1852
1862
1846
1866
1915
1930
1942
1965
2038
2022
1958
1904
1818
1766
1757
1786
1779
1776
1771
1801
1810
1772
1755
1782
1794
1775
1806
2293
3743
4095
4095
2960
2127
1739
1555
1531
1535
1535
1535
1570
1619
1647
1648
1665
1696
1712
1692
1651
1670
1699
1722
1745
1750
1780
1795
1854
1844
1818
1830
1859
1870
1840
1808
1831
1818
1793
1806
1802
1827
1843
1845
1834
1856
1882
1861
1874
1872
1874
1900
1883
1872
1872
1923
1968
2002
2036
2067
2003
1939
1840
1863
1823
1742
1746
1755
1781
1810
1831
1815
1794
1817
1843
1808
1758
1904
2803
4095
4095
4095
2735
2011
1646
1523
1487
1488
1512
1575
1575
1597
1616
1671
1677
1669
1696
1679
1712
1723
1742
1749
1711
1750
1784
1819
1840
1798
1829
1843
1829
1815
1806
1781
1777
1791
1785
1749
1776
1791
1815
1837
1842
1847
1852
1837
1867
1847
1821
1787
1799
1842
1859
1882
1915
1935
1958
1980
2034
1983
1921
1859
1792
1776
1770
1785
1776
1759
1783
1780
1783
1773
1771
1791
1776
1731
1808
2309
3937
4095
4095
3423
2294
1733
1504
1427
1449
1456
1498
1559
1577
1616
1616
1647
1647
1702
1648
1612
1678
1714
1730
1773
1773
1786
1807
1798
1814
1834
1794
1763
1767
1751
1742
1757
1750
1775
1745
1731
1763
1747
1728
1746
1781
1823
1813
1809
1856
1856
1797
1775
1818
1815
1787
1850
1872
1894
1920
1969
2006
1951
1854
1813
1777
1746
1744
1744
1742
1739
1767
1779
1755
1747
1743
1765
1771
1709
1914
2891
4095
4095
3763
2502
1856
1601
1495
1419
1457
1494
1520
1535
1535
1563
1613
1651
1638
1643
1648
1659
1695
1710
1712
1737
1747
1752
1778
1814
1860
1778
1744
1746
1765
1817
1755
1703
1727
1757
1728
1713
1745
1779
1823
1801
1795
1822
1844
1783
1805
1797
1818
1834
1827
1839
1865
1904
1906
1952
2005
2003
1941
1860
1793
1745
1725
1757
1757
1744
1756
1776
1780
1748
1767
1778
1744
1723
1776
2214
3440
4095
4095
3087
2202
1744
1557
1535
1495
1506
1570
1562
1593
1603
1664
1675
1673
1679
1663
1682
1733
1719
1746
1756
1759
1776
1805
1847
1831
1845
1857
1852
1866
1824
1801
1775
1781
1810
1792
1814
1783
1779
1805
1833
1893
1872
1842
1865
1867
1844
1847
1852
1881
1918
1945
1994
2005
2010
2032
1988
1939
1866
1819
1781
1767
1767
1769
1831
1858
1796
1775
1741
1762
1789
1776
1747
2011
3023
4095
4095
3953
2620
1966
1634
1483
1484
1500
1535
1567
1614
1667
1643
1648
1650
1682
1706
1715
1705
1687
1680
1728
1751
1817
1806
1807
1808
1840
1884
1840
1804
1811
1775
1792
1789
1796
1809
1814
1786
1786
1841
1815
1808
1855
1813
1849
1847
1851
1875
1847
1856
1858
1885
1934
1921
1989
2062
2039
1968
1891
1854
1817
1773
1759
1766
1781
1792
1782
1810
1809
1828
1811
1782
1757
1743
2071
3353
4095
4095
3948
2620
1901
1573
1490
1439
1435
1488
1503
1535
1599
1650
1658
1664
1691
1676
1712
1729
1738
1736
1729
1775
1771
1784
1840
1879
1841
1806
1779
1801
1775
1731
1718
1712
1739
1735
1781
1795
1791
1785
1776
1813
1798
1780
1808
1808
1830
1840
1840
1839
1822
1831
1887
1910
1870
1868
1979
2001
1927
1869
1789
1788
1767
1781
1732
1702
1744
1744
1756
1792
1777
1787
1766
1743
1811
2416
4095
4095
4095
3109
2154
1697
1520
1484
1472
1457
1507
1555
1607
1616
1616
1642
1650
1670
1690
1682
1717
1722
1734
1761
1790
1823
1794
1809
1842
1792
1791
1797
1749
1743
1734
1776
1755
1754
1774
1758
1771
1782
1783
1770
1771
1811
1840
1825
1818
1808
1809
1836
1821
1825
1815
1849
1862
1888
1949
1978
1988
1951
1860
1805
1770
1771
1745
1723
1738
1776
1763
1726
1743
1751
1781
1767
1703
1761
2256
3600
4095
4095
3071
2160
1699
1535
1489
1502
1502
1516
1535
1567
1585
1659
1621
1630
1674
1685
1664
1646
1680
1712
1739
1774
1759
1806
1837
1842
1853
1856
1824
1763
1758
1754
1726
1735
1790
1781
1790
1760
1768
1789
1817
1806
1799
1826
1822
1808
1798
1792
1835
1845
1862
1879
1895
1904
1931
2001
2061
1961
1878
1803
1783
1787
1747
1731
1727
1762
1773
1754
1799
1808
1798
1771
1678
1761
2172
3393
4095
4095
3106
2204
1805
1595
1485
1515
1581
1573
1535
1569
1625
1669
1680
1695
1679
1694
1716
1712
1707
1705
1738
1771
1791
1789
1808
1887
1862
1827
1808
1825
1839
1808
1770
1776
1798
1837
1813
1825
1805
1812
1845
1838
1840
1873
1859
1857
1865
1827
1868
1871
1902
1920
1946
1996
2030
2018
1961
1911
1840
1793
1847
1771
1737
1739
1757
1798
1798
1810
1829
1801
1803
1723
1840
2544
4095
4095
4095
2899
2092
1683
1522
1493
1535
1566
1574
1585
1589
1645
1667
1675
1713
1659
1676
1729
1734
1757
1756
1763
1792
1781
1815
1847
1865
1855
1840
1833
1799
1791
1801
1759
1774
1783
1808
1791
1773
1797
1835
1860
1840
1801
1819
1831
1840
1878
1838
1844
1853
1906
1908
1910
1954
2014
2009
1989
1869
1806
1774
1823
1803
1760
1741
1744
1743
1790
1798
1805
1794
1775
1742
1843
2615
4095
4095
4095
2997
2149
1668
1491
1456
1446
1484
1530
1591
1630
1613
1595
1623
1666
1680
1662
1675
1678
1712
1742
1762
1789
1759
1799
1839
1828
1805
1776
1782
1761
1770
1758
1695
1699
1774
1747
1743
1731
1755
1777
1763
1776
1787
1840
1840
1808
1800
1774
1761
1813
1837
1890
1903
1975
2013
1921
1873
1826
1779
1739
1710
1728
1716
1744
1719
1719
1764
1748
1759
1772
1716
1706
1948
2932
4095
4095
3718
2482
1853
1569
1460
1472
1431
1466
1529
1574
1590
1613
1643
1709
1655
1616
1595
1643
1653
1663
1724
1741
1770
1781
1798
1846
1837
1814
1805
1792
1802
1777
1763
1754
1760
1775
1767
1770
1798
1782
1819
1813
1808
1819
1804
1834
1834
1826
1831
1831
1861
1889
1920
1936
1979
2047
1982
1921
1851
1777
1774
1754
1751
1762
1750
1774
1761
1760
1767
1750
1781
1759
1738
1955
2899
4095
4095
3525
2433
1881
1642
1520
1513
1520
1535
1599
1614
1636
1648
1648
1662
1653
1680
1691
1689
1699
1691
1726
1737
1745
1781
1797
1828
1858
1861
1872
1834
1810
1798
1803
1803
1776
1800
1806
1808
1829
1819
1838
1840
1840
1856
1857
1865
1877
1858
1867
1854
1894
1936
1947
1968
2009
2061
2005
1930
1874
1823
1792
1776
1793
1802
1753
1770
1763
1771
1808
1812
1845
1808
1735
1926
2850
4095
4095
3911
2594
1913
1630
1530
1535
1600
1555
1581
1596
1563
1584
1581
1619
1655
1676
1692
1691
1735
1744
1735
1808
1760
1738
1741
1776
1825
1845
1841
1827
1813
1793
1747
1792
1781
1776
1795
1789
1809
1823
1803
1801
1810
1837
1862
1870
1847
1832
1847
1878
1874
1854
1869
1936
1946
1937
2000
2011
1994
1918
1836
1777
1744
1803
1776
1769
1773
1792
1795
1785
1779
1822
1803
1751
1805
2368
4081
4095
4095
3200
2215
1746
1557
1488
1444
1466
1535
1535
1622
1621
1613
1643
1659
1668
1667
1711
1737
1727
1726
1745
1761
1793
1811
1821
1808
1811
1847
1837
1822
1778
1773
1776
1749
1745
1726
1730
1776
1777
1821
1830
1819
1821
1797
1808
1838
1829
1829
1811
1835
1840
1885
1889
1872
1927
2001
2015
1937
1841
1819
1796
1762
1744
1733
1744
1750
1754
1743
1758
1776
1774
1751
1712
1765
2277
3678
4095
4095
3027
2139
1681
1484
1457
1471
1505
1557
1535
1580
1587
1637
1627
1664
1680
1648
1697
1664
1683
1698
1682
1726
1761
1793
1805
1797
1819
1792
1778
1803
1749
1715
1710
1744
1759
1739
1772
1770
1786
1786
1778
1776
1790
1795
1790
1793
1819
1842
1840
1845
1837
1867
1875
1887
1955
2005
1977
1904
1842
1790
1722
1751
1757
1727
1725
1741
1777
1755
1747
1749
1751
1742
1707
1835
2533
4095
4095
3814
2657
1957
1651
1533
1491
1487
1531
1564
1605
1611
1628
1648
1654
1703
1712
1664
1650
1652
1694
1723
1733
1745
1763
1786
1802
1872
1898
1857
1828
1809
1795
1806
1819
1795
1787
1795
1815
1797
1820
1819
1837
1862
1831
1820
1834
1859
1905
1852
1840
1837
1899
1938
1964
2001
2047
2016
1943
1872
1859
1814
1765
1785
1771
1777
1793
1778
1755
1779
1782
1796
1817
1777
1791
2358
3991
4095
4095
3143
2224
1734
1522
1490
1488
1532
1554
1583
1601
1612
1650
1650
1686
1711
1688
1712
1716
1744
1751
1745
1782
1798
1801
1863
1868
1840
1834
1842
1837
1806
1827
1786
1757
1776
1777
1811
1834
1792
1806
1806
1851
1883
1871
1836
1810
1843
1855
1871
1892
1875
1905
1921
1942
1993
2032
2013
1920
1847
1829
1803
1790
1807
1787
1799
1772
1776
1782
1785
1789
1792
1788
1727
1867
2677
4095
4095
4095
2878
2077
1680
1526
1475
1485
1509
1520
1595
1630
1636
1637
1648
1691
1701
1687
1694
1707
1709
1722
1776
1793
1792
1853
1835
1827
1825
1820
1830
1815
1760
1735
1717
1733
1725
1744
1773
1779
1827
1823
1814
1818
1795
1831
1813
1808
1821
1842
1835
1834
1873
1903
1899
1935
1959
2025
1968
1857
1813
1777
1769
1761
1753
1795
1774
1767
1756
1754
1779
1762
1789
1747
1701
1826
2544
4095
4095
4095
2901
2064
1639
1484
1461
1466
1492
1535
1584
1626
1619
1575
1615
1650
1675
1680
1680
1686
1719
1738
1749
1767
1789
1777
1792
1855
1839
1811
1776
1768
1781
1753
1754
1745
1730
1741
1748
1768
1761
1770
1792
1786
1786
1776
1777
1834
1807
1777
1775
1795
1843
1886
1904
1920
1961
2015
1965
1894
1827
1747
1753
1722
1735
1749
1742
1764
1783
1759
1747
1775
1787
1776
1711
1801
2491
4058
4095
3782
2673
1968
1682
1525
1515
1530
1505
1519
1535
1593
1627
1664
1683
1651
1650
1661
1684
1714
1712
1689
1701
1743
1791
1808
1821
1818
1812
1866
1842
1776
1763
1747
1776
1794
1779
1765
1772
1785
1797
1831
1846
1829
1833
1797
1808
1827
1837
1893
1856
1835
1856
1874
1918
1968
2000
2019
2000
1957
1859
1825
1768
1742
1794
1811
1810
1787
1742
1728
1761
1799
1797
1793
1787
1845
2295
3675
4095
4095
3084
2161
1737
1566
1535
1520
1558
1607
1648
1661
1635
1655
1694
1691
1691
1693
1714
1709
1739
1776
1760
1776
1806
1821
1861
1871
1894
1861
1833
1819
1808
1814
1811
1826
1841
1825
1809
1822
1841
1856
1824
1822
1827
1837
1894
1879
1878
1895
1891
1874
1862
1856
1890
1925
1958
1979
2037
2054
1984
1967
1878
1839
1810
1767
1792
1792
1782
1791
1843
1825
1776
1805
1793
1786
1776
1903
2704
4095
4095
4095
2929
2154
1710
1471
1441
1479
1520
1534
1568
1639
1680
1659
1654
1674
1705
1712
1700
1690
1725
1761
1757
1771
1798
1840
1867
1871
1872
1839
1794
1776
1754
1770
1766
1762
1789
1777
1787
1769
1776
1807
1813
1802
1808
1834
1814
1799
1826
1826
1830
1847
1839
1838
1803
1803
1838
1831
1859
1904
1963
2039
2005
1930
1847
1782
1771
1744
1769
1769
1771
1750
1744
1774
1793
1821
1805
1767
1721
1846
2437
4057
4095
4095
3038
2128
1686
1502
1481
1470
1523
1530
1516
1600
1621
1615
1638
1626
1689
1694
1731
1719
1741
1781
1739
1746
1790
1798
1840
1839
1835
1849
1814
1802
1781
1776
1793
1761
1737
1744
1749
1764
1766
1785
1808
1804
1808
1802
1838
1818
1834
1840
1799
1789
1791
1824
1840
1855
1886
1885
1937
2027
1968
1927
1857
1787
1759
1727
1743
1751
1735
1753
1776
1785
1730
1747
1765
1769
1763
1698
1904
2787
4095
4095
3683
2511
1879
1583
1511
1488
1489
1520
1535
1575
1569
1605
1648
1657
1647
1652
1673
1680
1683
1741
1722
1708
1762
1785
1798
1803
1845
1850
1792
1776
1763
1757
1744
1745
1728
1731
1747
1775
1767
1789
1753
1766
1788
1769
1786
1823
1827
1811
1803
1840
1820
1819
1832
1869
1909
1895
1954
2067
2027
1911
1787
1750
1747
1744
1776
1753
1742
1749
1761
1783
1773
1758
1773
1769
1734
1770
2219
3504
4095
3929
2842
2099
1742
1590
1535
1530
1535
1564
1566
1616
1603
1629
1670
1675
1693
1710
1703
1709
1705
1744
1747
1755
1776
1794
1845
1874
1883
1883
1830
1835
1797
1776
1792
1808
1811
1803
1825
1804
1795
1830
1851
1887
1856
1840
1870
1847
1847
1857
1854
1889
1887
1904
1939
1952
2002
2065
2019
1966
1895
1881
1840
1805
1811
1781
1791
1815
1804
1797
1787
1802
1812
1830
1808
1788
2230
3613
4095
4095
3153
2256
1818
1618
1563
1562
1600
1581
1623
1645
1668
1702
1674
1690
1730
1744
1779
1755
1694
1701
1721
1754
1774
1822
1855
1903
1893
1889
1851
1832
1794
1793
1761
1767
1790
1813
1831
1829
1823
1825
1809
1825
1840
1875
1867
1815
1836
1841
1882
1867
1886
1919
1914
1941
2015
2014
1981
1902
1847
1833
1789
1770
1742
1791
1767
1749
1770
1769
1801
1809
1819
1789
1788
2141
3468
4095
4095
3565
2402
1823
1555
1486
1454
1514
1535
1535
1565
1584
1619
1634
1649
1679
1688
1709
1714
1713
1731
1767
1760
1779
1791
1824
1824
1859
1843
1837
1768
1750
1742
1728
1729
1763
1741
1744
1773
1744
1776
1794
1821
1792
1795
1835
1803
1807
1844
1798
1824
1852
1855
1871
1951
2002
1968
1908
1863
1798
1787
1746
1769
1718
1711
1748
1753
1754
1767
1769
1788
1775
1712
1749
2240
3648
4095
4095
2975
2101
1699
1520
1504
1484
1513
1583
1574
1586
1597
1613
1635
1629
1655
1648
1663
1690
1686
1699
1731
1738
1735
1748
1808
1808
1809
1819
1803
1791
1776
1733
1725
1742
1740
1713
1752
1767
1761
1764
1758
1795
1806
1803
1791
1805
1819
1821
1837
1861
1858
1875
1953
2000
1973
1918
1840
1792
1746
1687
1697
1711
1728
1722
1738
1761
1782
1794
1771
1744
1680
1847
2752
4095
4095
3456
2416
1889
1624
1558
1531
1519
1532
1524
1569
1588
1616
1691
1684
1687
1653
1653
1652
1664
1711
1718
1713
1757
1795
1808
1840
1857
1846
1801
1813
1788
1808
1794
1777
1805
1821
1802
1788
1776
1822
1856
1826
1823
1820
1855
1903
1852
1840
1895
1951
1907
1957
2015
2034
2011
1931
1860
1820
1810
1843
1757
1733
1757
1749
1769
1782
1828
1856
1825
1762
1739
2015
3101
4095
4095
3485
2378
1856
1626
1581
1521
1555
1609
1610
1602
1609
1663
1722
1690
1677
1671
1708
1731
1734
1763
1783
1801
1798
1762
1838
1856
1854
1859
1837
1822
1808
1802
1823
1830
1827
1805
1803
1807
1790
1809
1835
1862
1883
1847
1861
1864
1858
1857
1848
1865
1879
1917
1967
2017
2047
1966
1878
1828
1838
1797
1744
1745
1791
1790
1793
1793
1793
1793
1769
1764
1722
1759
2160
3429
4095
4095
3520
2386
1780
1532
1479
1474
1505
1535
1600
1585
1599
1650
1712
1701
1695
1683
1677
1680
1727
1766
1765
1785
1791
1818
1831
1835
1838
1827
1821
1801
1769
1727
1737
1749
1759
1763
1782
1744
1757
1778
1791
1799
1807
1818
1810
1842
1860
1815
1823
1840
1872
1874
1871
1915
1977
1981
1975
1903
1798
1731
1743
1789
1781
1775
1773
1763
1787
1742
1760
1785
1786
1723
1681
1848
2646
4095
4095
3981
2640
1935
1627
1535
1482
1503
1511
1535
1590
1602
1602
1617
1655
1659
1648
1682
1692
1692
1719
1712
1760
1765
1791
1838
1824
1831
1814
1802
1799
1744
1744
1743
1747
1751
1746
1770
1744
1741
1757
1765
1791
1798
1806
1803
1803
1809
1794
1808
1837
1799
1847
1865
1841
1847
1872
1936
1985
1985
1920
1831
1790
1756
1769
1779
1727
1743
1740
1770
1787
1767
1797
1779
1775
1716
1744
2134
3227
4095
3950
2936
2128
1744
1596
1565
1558
1579
1563
1616
1649
1623
1622
1651
1680
1682
1679
1714
1723
1716
1737
1750
1771
1769
1790
1805
1841
1870
1847
1826
1803
1797
1818
1793
1780
1781
1763
1790
1805
1802
1813
1824
1861
1829
1828
1831
1835
1862
1859
1859
1863
1867
1921
1954
1978
1996
2020
2005
1919
1875
1837
1797
1808
1783
1791
1782
1765
1796
1809
1796
1776
1771
1804
1814
1783
1895
2515
4095
4095
4055
2770
2027
1734
1607
1581
1584
1600
1601
1619
1655
1681
1703
1715
1746
1778
1725
1658
1696
1717
1776
1785
1794
1835
1831
1857
1877
1905
1897
1815
1797
1792
1783
1790
1792
1805
1805
1815
1872
1840
1818
1820
1806
1818
1846
1873
1872
1863
1879
1872
1840
1860
1868
1887
1903
1929
1911
1938
2021
1989
1965
1883
1840
1803
1787
1833
1808
1786
1778
1803
1808
1787
1782
1808
1791
1799
1791
1969
2928
4095
4095
3790
2503
1929
1649
1575
1535
1553
1584
1591
1624
1639
1658
1674
1662
1707
1697
1694
1723
1740
1750
1787
1786
1783
1817
1846
1865
1854
1850
1808
1802
1792
1808
1770
1739
1762
1744
1745
1766
1789
1820
1795
1782
1825
1811
1810
1793
1807
1815
1793
1817
1817
1824
1847
1878
1930
1904
1907
1982
1979
1934
1904
1840
1795
1762
1793
1810
1787
1759
1749
1778
1777
1792
1821
1808
1808
1790
1773
2043
3115
4095
4095
3619
2382
1822
1635
1514
1495
1534
1535
1580
1616
1620
1639
1645
1659
1680
1678
1691
1705
1723
1721
1741
1743
1766
1790
1815
1809
1824
1827
1818
1783
1796
1777
1686
1684
1714
1728
1712
1706
1751
1776
1757
1767
1763
1802
1792
1769
1792
1802
1805
1808
1809
1814
1808
1875
1867
1863
1933
1968
1985
1879
1790
1766
1747
1793
1759
1732
1735
1744
1762
1719
1755
1763
1744
1790
1762
1717
1831
2451
3912
4095
3722
2646
1939
1638
1535
1535
1558
1533
1553
1575
1613
1638
1630
1609
1662
1698
1681
1653
1711
1723
1721
1744
1771
1794
1806
1841
1875
1851
1827
1806
1780
1749
1745
1755
1725
1747
1750
1766
1775
1782
1814
1798
1786
1824
1794
1808
1840
1851
1851
1837
1823
1872
1901
1909
1953
2030
2061
1974
1904
1840
1819
1794
1782
1803
1793
1777
1779
1747
1762
1776
1804
1796
1785
1751
1814
2295
3719
4095
4095
2918
2134
1822
1616
1529
1521
1568
1619
1638
1726
1712
1659
1679
1625
1680
1767
1766
1722
1773
1743
1714
1743
1771
1809
1901
1923
1893
1853
1802
1765
1743
1749
1767
1773
1855
1870
1838
1920
1821
1701
1747
1773
1814
1839
1910
1915
1992
1933
1733
1775
1870
1901
1963
1979
1983
2096
2129
1963
1825
1811
1770
1742
1809
1828
1811
1841
1809
1742
1722
1792
1838
1857
1775
1764
2209
3481
4095
4095
3238
2240
1753
1559
1614
1535
1586
1516
1483
1529
1606
1698
1680
1687
1713
1734
1712
1668
1726
1715
1649
1686
1727
1789
1845
1871
1922
1857
1836
1827
1748
1761
1759
1775
1801
1763
1766
1805
1765
1790
1831
1787
1763
1794
1838
1840
1878
1920
1886
1801
1757
1777
1810
1939
1951
1897
2000
2064
1994
1900
1810
1744
1761
1766
1766
1803
1851
1751
1763
1795
1766
1827
1781
1747
1721
1952
2989
4095
4095
3843
2550
1885
1622
1501
1483
1471
1472
1591
1577
1561
1618
1602
1655
1702
1706
1663
1747
1761
1727
1753
1707
1756
1840
1819
1808
1810
1868
1881
1854
1813
1737
1707
1680
1685
1723
1748
1769
1782
1743
1771
1826
1835
1744
1745
1776
1776
1767
1809
1896
1901
1842
1861
1822
1781
1838
1935
1965
1968
1973
1825
1666
1680
1657
1687
1742
1770
1785
1794
1840
1783
1745
1712
1664
1699
2126
3465
4095
4095
3305
2240
1622
1393
1378
1442
1498
1535
1639
1653
1687
1574
1485
1555
1616
1626
1652
1745
1760
1718
1795
1727
1645
1702
1773
1794
1831
1871
1857
1821
1867
1683
1612
1674
1694
1735
1763
1782
1862
1862
1766
1727
1648
1725
1791
1825
1817
1813
1824
1805
1914
1959
1803
1823
1873
1941
1970
1927
1894
1879
1818
1803
1702
1680
1729
1809
1747
1702
1775
1764
1778
1809
1709
1721
2098
3312
4095
4095
3056
2160
1839
1614
1443
1485
1575
1595
1565
1575
1663
1712
1681
1648
1651
1680
1681
1727
1833
1746
1715
1764
1792
1749
1741
1811
1857
1893
1874
1879
1898
1818
1792
1815
1759
1693
1690
1753
1814
1841
1850
1882
1973
1949
1782
1776
1789
1804
1841
1895
1933
1933
2021
2031
2035
1988
1897
1847
1800
1776
1809
1821
1872
1923
1842
1724
1664
1712
1771
1809
1846
1793
1975
2559
4095
4095
4026
2799
2021
1698
1631
1574
1525
1655
1674
1640
1585
1584
1621
1670
1696
1680
1729
1809
1757
1665
1696
1734
1703
1713
1859
1929
1909
1847
1822
1838
1830
1789
1786
1759
1807
1814
1805
1799
1890
1819
1761
1833
1899
1824
1808
1840
1959
1899
1853
1899
1822
1863
1875
1895
1968
2033
2064
2070
1954
1905
1762
1713
1690
1712
1781
1818
1808
1783
1797
1777
1808
1808
1744
1807
2427
4095
4095
4095
3127
2171
1632
1506
1535
1483
1523
1523
1535
1606
1643
1696
1728
1676
1695
1758
1674
1641
1699
1790
1757
1748
1790
1872
1865
1911
1905
1822
1750
1751
1785
1786
1759
1792
1831
1840
1822
1730
1758
1776
1797
1868
1872
1842
1841
1805
1811
1844
1878
1843
1875
1935
1891
1883
1955
2029
1982
1915
1886
1888
1769
1755
1712
1742
1765
1776
1798
1819
1840
1844
1794
1747
1667
1895
2937
4095
4095
4095
2831
1984
1520
1435
1394
1461
1519
1535
1603
1642
1717
1648
1599
1620
1661
1654
1658
1699
1760
1792
1820
1795
1742
1836
1855
1803
1801
1790
1803
1776
1839
1788
1759
1777
1751
1712
1712
1726
1777
1778
1825
1904
1834
1828
1830
1769
1759
1837
1827
1817
1905
1982
1863
1874
1984
1997
1919
1856
1808
1760
1841
1745
1706
1712
1740
1795
1794
1759
1776
1823
1808
1706
1729
2306
3873
4095
4095
3162
2194
1712
1571
1483
1409
1411
1486
1535
1584
1602
1612
1616
1667
1682
1667
1680
1700
1695
1714
1670
1680
1712
1792
1845
1864
1855
1830
1850
1744
1696
1741
1710
1712
1755
1791
1757
1739
1776
1835
1819
1755
1751
1770
1806
1877
1810
1749
1773
1791
1863
1889
1945
1952
1986
1920
1883
1755
1728
1756
1767
1749
1739
1735
1747
1741
1730
1781
1766
1743
1723
1680
1994
3120
4095
4095
3167
2224
1822
1633
1520
1514
1535
1520
1535
1597
1651
1639
1634
1671
1689
1709
1680
1680
1711
1728
1717
1730
1766
1775
1825
1860
1811
1845
1843
1825
1818
1785
1798
1747
1788
1793
1791
1798
1829
1825
1842
1818
1802
1812
1813
1853
1882
1856
1840
1904
1981
1987
1984
2041
2030
1925
1807
1789
1759
1789
1809
1782
1749
1767
1804
1818
1781
1790
1802
1755
1750
2043
3119
4095
4095
3570
2426
1870
1610
1570
1554
1519
1515
1554
1635
1680
1648
1663
1669
1701
1722
1667
1665
1680
1693
1712
1733
1811
1810
1856
1782
1821
1859
1870
1872
1840
1795
1807
1794
1789
1806
1818
1834
1785
1795
1840
1866
1862
1846
1853
1887
1905
1840
1839
1901
1935
1973
2027
2064
2025
1916
1840
1831
1765
1778
1785
1751
1777
1792
1807
1797
1789
1777
1754
1776
1772
1994
3095
4095
4095
4095
2745
1981
1565
1439
1482
1454
1461
1511
1583
1609
1621
1697
1718
1711
1646
1635
1690
1690
1703
1723
1747
1792
1799
1824
1815
1822
1861
1803
1769
1790
1759
1750
1728
1778
1747
1741
1767
1791
1773
1774
1817
1887
1808
1822
1808
1837
1793
1783
1792
1852
1890
1909
1980
2029
1984
1921
1834
1781
1773
1778
1745
1742
1779
1775
1769
1801
1821
1801
1759
1763
1712
1778
2464
4095
4095
4095
3087
2160
1718
1501
1415
1467
1449
1488
1533
1597
1639
1603
1648
1654
1639
1680
1696
1729
1702
1680
1744
1738
1776
1834
1823
1808
1790
1798
1807
1762
1746
1713
1760
1793
1729
1681
1712
1791
1791
1755
1783
1776
1802
1776
1766
1783
1776
1798
1842
1868
1889
1845
1870
1917
1973
1953
1874
1814
1771
1753
1743
1706
1725
1755
1761
1740
1718
1757
1744
1731
1766
1742
1851
2559
4067
4095
3664
2594
1942
1664
1535
1491
1569
1530
1522
1599
1610
1646
1673
1658
1648
1703
1673
1645
1655
1707
1698
1776
1779
1754
1808
1886
1889
1815
1783
1798
1774
1779
1751
1747
1785
1809
1861
1779
1761
1810
1829
1786
1767
1823
1843
1823
1843
1835
1839
1841
1901
1917
1874
1897
1968
1998
1985
1939
1894
1849
1822
1824
1774
1760
1767
1747
1776
1775
1792
1810
1793
1814
1785
1733
1974
2917
4095
4095
3543
2432
1888
1667
1586
1604
1600
1565
1644
1661
1636
1623
1639
1708
1680
1686
1744
1714
1739
1728
1727
1758
1775
1848
1831
1818
1847
1856
1895
1843
1841
1851
1841
1819
1821
1853
1856
1797
1791
1833
1856
1851
1845
1872
1883
1904
1899
1884
1888
1895
1877
1888
1919
1962
1936
1969
2047
2021
2003
1882
1851
1842
1774
1759
1775
1825
1840
1795
1786
1802
1850
1854
1839
1788
1847
2298
3654
4095
4095
3440
2321
1805
1606
1565
1524
1571
1603
1584
1647
1639
1627
1691
1719
1703
1718
1703
1710
1722
1772
1789
1792
1810
1807
1851
1850
1856
1849
1835
1831
1806
1770
1778
1763
1795
1791
1767
1771
1759
1829
1814
1817
1823
1821
1862
1823
1808
1834
1854
1827
1812
1872
1825
1791
1831
1855
1869
1936
1984
2033
2030
1921
1878
1794
1749
1745
1747
1761
1775
1759
1740
1765
1783
1826
1829
1717
1724
1733
1978
2974
4095
4095
3835
2535
1904
1565
1425
1446
1477
1510
1535
1586
1598
1606
1641
1627
1654
1683
1682
1728
1718
1712
1738
1770
1776
1803
1813
1834
1794
1796
1779
1808
1826
1755
1727
1735
1749
1727
1680
1718
1732
1749
1773
1791
1808
1803
1863
1805
1788
1776
1741
1774
1820
1769
1776
1776
1819
1878
1911
1914
1902
1935
1958
1866
1809
1770
1741
1747
1741
1767
1763
1744
1747
1733
1745
1731
1775
1777
1760
1765
1872
2547
4080
4095
3810
2646
1950
1629
1495
1498
1483
1535
1566
1535
1573
1638
1643
1644
1653
1690
1712
1703
1678
1647
1687
1729
1807
1804
1780
1830
1838
1837
1798
1795
1837
1760
1728
1734
1681
1701
1733
1769
1775
1759
1830
1778
1749
1779
1825
1835
1808
1825
1823
1872
1818
1791
1826
1825
1815
1849
1828
1878
1893
1943
2030
2030
1968
1889
1825
1824
1767
1795
1783
1717
1715
1706
1771
1807
1776
1803
1774
1792
1775
1750
2110
3144
4095
3968
2959
2144
1769
1657
1575
1582
1585
1568
1620
1658
1610
1648
1659
1690
1738
1747
1714
1681
1719
1739
1778
1754
1773
1850
1841
1857
1878
1843
1872
1819
1778
1817
1855
1840
1783
1761
1779
1781
1792
1792
1838
1904
1873
1919
1818
1808
1808
1806
1892
1937
1888
1919
1861
1872
1869
1854
1954
1997
2055
2069
1963
1866
1809
1766
1755
1763
1843
1761
1772
1792
1749
1781
1839
1813
1813
1767
1771
1936
2753
4095
4095
3878
2650
1909
1616
1531
1599
1600
1554
1600
1650
1642
1671
1658
1671
1671
1669
1707
1738
1743
1778
1809
1811
1811
1753
1803
1853
1849
1872
1859
1859
1814
1815
1808
1763
1721
1713
1703
1743
1829
1806
1806
1872
1843
1761
1789
1842
1808
1805
1821
1859
1859
1803
1887
1840
1826
1843
1885
1907
1941
2000
2075
1965
1885
1862
1775
1731
1713
1796
1830
1742
1770
1830
1791
1770
1760
1783
1819
1805
1855
2453
4095
4095
4095
2883
2133
1726
1522
1522
1488
1527
1663
1600
1602
1663
1695
1689
1689
1703
1742
1701
1748
1782
1787
1769
1755
1787
1847
1907
1936
1873
1892
1855
1753
1712
1765
1758
1744
1759
1727
1761
1831
1771
1722
1713
1820
1842
1797
1806
1871
1846
1797
1776
1839
1853
1853
1818
1807
1914
1881
1917
1985
2063
1985
1855
1792
1789
1763
1776
1798
1804
1728
1751
1733
1745
1749
1779
1853
1829
1750
1760
2101
3280
4095
4095
3626
2430
1815
1577
1533
1477
1478
1506
1578
1613
1631
1582
1622
1657
1650
1685
1715
1683
1699
1735
1741
1777
1822
1835
1773
1831
1839
1808
1813
1815
1811
1798
1712
1658
1712
1727
1728
1771
1781
1755
1745
1745
1760
1819
1776
1773
1803
1835
1814
1772
1791
1840
1850
1855
1811
1871
1951
1952
1936
1970
1826
1739
1740
1757
1712
1701
1723
1740
1787
1725
1713
1790
1744
1735
1745
1715
1920
2779
4095
4095
3277
2379
1863
1601
1521
1491
1479
1535
1680
1590
1535
1616
1655
1693
1690
1661
1678
1719
1707
1699
1671
1729
1761
1834
1808
1813
1847
1858
1850
1839
1838
1759
1714
1764
1753
1761
1770
1792
1802
1818
1819
1823
1776
1777
1799
1835
1825
1808
1855
1840
1838
1889
1861
1914
1921
1949
2047
2013
1949
1842
1798
1807
1774
1755
1728
1772
1799
1761
1791
1759
1793
1808
1744
1711
1767
2257
3739
4095
4095
3113
2192
1744
1570
1535
1531
1596
1649
1629
1619
1617
1700
1772
1705
1728
1713
1727
1725
1687
1725
1732
1767
1797
1850
1904
1917
1911
1903
1838
1811
1827
1813
1812
1805
1811
1840
1873
1846
1791
1843
1841
1807
1829
1853
1873
1898
1954
1891
1840
1843
1869
1867
1882
1914
1968
2014
2093
2123
2013
1877
1779
1746
1761
1761
1774
1781
1791
1818
1783
1825
1855
1829
1773
1713
1872
2447
4095
4095
4095
3084
2146
1717
1585
1527
1503
1531
1597
1605
1616
1699
1697
1649
1665
1688
1743
1706
1678
1690
1782
1840
1718
1731
1824
1901
1882
1840
1849
1855
1828
1817
1794
1812
1781
1792
1770
1731
1773
1789
1795
1819
1823
1840
1840
1836
1836
1837
1856
1838
1811
1813
1811
1856
1873
1919
1966
1967
2034
1954
1868
1854
1817
1741
1701
1701
1751
1748
1797
1790
1767
1791
1795
1779
1744
1712
1835
2542
4095
4095
4095
2942
2096
1683
1504
1421
1477
1486
1533
1535
1535
1615
1658
1685
1710
1634
1622
1662
1707
1707
1711
1728
1741
1806
1815
1819
1875
1824
1814
1835
1774
1777
1751
1745
1776
1791
1749
1767
1747
1749
1751
1799
1776
1807
1842
1823
1850
1814
1759
1802
1808
1808
1835
1871
1895
1918
2011
2045
2000
1883
1805
1793
1726
1723
1766
1799
1775
1758
1745
1747
1738
1759
1779
1779
1735
1856
2537
4017
4095
4095
2836
2067
1648
1525
1520
1507
1518
1535
1563
1535
1591
1620
1619
1691
1718
1709
1638
1644
1655
1662
1679
1740
1744
1744
1810
1839
1846
1837
1841
1767
1706
1721
1737
1774
1756
1743
1765
1840
1839
1726
1734
1779
1835
1824
1777
1819
1807
1850
1871
1783
1787
1821
1887
1890
1895
1947
2047
2068
1975
1824
1765
1796
1744
1734
1738
1761
1809
1798
1771
1793
1799
1739
1731
1716
1765
2108
3232
4095
4014
3047
2180
1872
1734
1535
1478
1510
1559
1588
1634
1647
1683
1701
1683
1672
1682
1683
1709
1707
1723
1727
1717
1744
1729
1807
1858
1871
1891
1914
1856
1805
1775
1770
1810
1791
1759
1744
1776
1813
1873
1838
1793
1841
1843
1815
1811
1846
1847
1853
1858
1833
1872
1955
1951
1964
2033
2055
1962
1903
1855
1838
1767
1776
1778
1777
1765
1786
1810
1803
1823
1769
1781
1823
1778
1941
2785
4095
4095
3923
2674
2000
1659
1535
1507
1602
1572
1594
1616
1651
1704
1671
1648
1712
1728
1717
1683
1698
1714
1709
1744
1744
1745
1795
1868
1939
1837
1858
1839
1807
1811
1806
1817
1814
1815
1808
1805
1840
1832
1808
1831
1825
1858
1856
1853
1851
1849
1883
1906
1818
1839
1840
1895
1909
1920
1986
2028
2010
1975
1915
1853
1785
1757
1755
1743
1783
1777
1762
1803
1776
1808
1807
1804
1778
1777
2253
3818
4095
4095
3440
2352
1781
1534
1495
1530
1535
1493
1498
1579
1616
1655
1610
1623
1708
1711
1701
1707
1651
1688
1713
1776
1773
1776
1843
1877
1843
1840
1830
1793
1743
1793
1778
1760
1761
1765
1811
1777
1731
1745
1790
1840
1791
1802
1827
1856
1856
1810
1826
1853
1817
1787
1835
1874
1906
1983
2047
1963
1932
1912
1808
1741
1726
1754
1795
1739
1757
1771
1742
1756
1798
1834
1776
1744
1743
2086
3309
4095
4095
3741
2471
1859
1585
1520
1488
1446
1515
1563
1570
1584
1584
1622
1680
1700
1693
1661
1663
1658
1685
1706
1705
1727
1782
1803
1854
1865
1872
1797
1823
1777
1719
1745
1738
1744
1733
1728
1827
1792
1734
1776
1771
1759
1763
1790
1785
1798
1874
1809
1825
1797
1772
1872
1918
1846
1851
1904
1999
1946
1918
1830
1767
1762
1762
1752
1791
1744
1726
1756
1729
1758
1758
1777
1775
1734
1786
2383
3959
4095
3969
2770
2010
1700
1577
1484
1466
1488
1598
1579
1600
1606
1651
1635
1584
1615
1648
1664
1683
1718
1744
1706
1685
1776
1789
1780
1814
1846
1870
1829
1825
1799
1721
1750
1751
1763
1744
1748
1798
1791
1759
1782
1747
1781
1830
1774
1765
1802
1866
1821
1795
1838
1871
1879
1890
1982
2015
1952
1926
1856
1791
1765
1716
1707
1717
1724
1748
1744
1751
1715
1747
1795
1746
1724
1791
2303
3617
4095
4095
2994
2128
1746
1561
1488
1499
1523
1535
1595
1618
1600
1621
1642
1674
1707
1702
1711
1683
1695
1715
1759
1716
1750
1786
1825
1851
1869
1882
1884
1901
1883
1833
1808
1763
1771
1772
1808
1806
1803
1839
1859
1882
1882
1933
1861
1786
1883
1890
1837
1874
1916
1923
1965
2010
2032
2046
2007
1939
1898
1869
1802
1779
1779
1775
1770
1785
1827
1794
1776
1813
1863
1861
1775
1840
2589
4095
4095
4095
2961
2144
1729
1586
1535
1502
1520
1581
1580
1630
1665
1661
1664
1730
1743
1710
1695
1681
1710
1735
1776
1802
1776
1809
1861
1909
1887
1854
1839
1849
1837
1798
1790
1782
1809
1798
1850
1787
1776
1817
1827
1861
1861
1872
1853
1808
1815
1834
1862
1839
1857
1942
1941
1921
1972
2061
1989
1898
1856
1787
1767
1808
1791
1799
1781
1744
1745
1763
1776
1791
1778
1799
1754
1801
2487
4095
4095
4095
3071
2189
1717
1572
1430
1415
1458
1520
1582
1584
1591
1616
1681
1685
1646
1651
1679
1685
1707
1671
1706
1729
1802
1817
1822
1835
1823
1825
1838
1774
1782
1757
1733
1776
1717
1723
1744
1779
1780
1762
1778
1837
1817
1808
1813
1807
1811
1809
1797
1805
1858
1919
1910
1898
1997
1991
1931
1840
1788
1757
1744
1741
1774
1791
1718
1742
1785
1807
1740
1711
1741
1749
1738
1968
2960
4095
4095
3866
2589
1856
1563
1458
1446
1477
1535
1582
1579
1572
1605
1649
1655
1648
1647
1674
1646
1686
1725
1715
1725
1716
1764
1817
1895
1859
1811
1796
1785
1808
1775
1716
1747
1770
1755
1744
1728
1786
1791
1787
1785
1811
1840
1841
1815
1769
1774
1841
1846
1825
1879
1929
1920
1946
1998
1947
1863
1808
1721
1770
1771
1701
1698
1730
1744
1765
1749
1751
1744
1788
1789
1657
1846
2809
4095
4095
3378
2373
1815
1646
1555
1500
1516
1535
1568
1587
1605
1648
1649
1650
1673
1653
1634
1630
1669
1702
1689
1745
1761
1808
1791
1776
1794
1817
1843
1843
1824
1809
1792
1744
1742
1747
1790
1764
1782
1817
1809
1808
1840
1855
1840
1824
1857
1856
1837
1899
1899
1934
1955
1984
2053
2017
1930
1866
1845
1847
1770
1790
1766
1776
1776
1818
1805
1779
1777
1823
1830
1811
1781
2003
3071
4095
4095
3687
2463
1897
1649
1557
1523
1520
1535
1599
1664
1670
1648
1666
1713
1725
1671
1648
1686
1719
1764
1751
1767
1815
1776
1778
1856
1878
1887
1889
1840
1830
1837
1843
1788
1770
1788
1810
1840
1834
1812
1807
1808
1866
1898
1882
1822
1839
1854
1889
1854
1888
1914
1945
1899
1936
2013
2009
1979
1936
1850
1769
1776
1799
1806
1838
1777
1738
1727
1771
1819
1792
1824
1790
1783
2005
3055
4095
4095
4095
2719
1955
1574
1502
1487
1481
1535
1571
1605
1616
1587
1603
1666
1686
1651
1680
1691
1707
1717
1728
1777
1742
1747
1829
1829
1855
1840
1857
1839
1793
1729
1696
1703
1734
1777
1791
1751
1753
1787
1805
1811
1769
1771
1795
1837
1834
1835
1840
1834
1794
1863
1839
1849
1901
1907
2006
1999
1904
1821
1798
1813
1782
1773
1741
1680
1714
1719
1770
1790
1806
1824
1794
1763
1741
1891
2815
4095
4095
4019
2671
1961
1597
1475
1455
1489
1520
1491
1571
1535
1568
1636
1646
1649
1659
1671
1689
1704
1690
1677
1691
1711
1723
1759
1815
1845
1867
1805
1818
1797
1741
1756
1733
1728
1727
1732
1746
1786
1776
1776
1783
1850
1824
1793
1776
1763
1826
1799
1817
1840
1873
1854
1877
1936
2019
2005
1919
1794
1741
1752
1779
1793
1743
1739
1763
1758
1786
1734
1745
1701
1721
1769
1746
1866
2525
3986
4095
3755
2658
1969
1669
1522
1486
1507
1555
1601
1604
1605
1623
1619
1635
1695
1709
1651
1643
1676
1682
1675
1756
1778
1758
1787
1829
1840
1872
1862
1821
1821
1799
1727
1739
1775
1744
1763
1792
1803
1856
1851
1808
1778
1795
1834
1835
1845
1841
1849
1856
1892
1967
1968
1872
1918
2000
2023
1975
1894
1829
1827
1794
1788
1799
1831
1746
1739
1750
1765
1808
1851
1807
1777
1771
1986
2823
4095
4095
3818
2541
1920
1682
1568
1553
1581
1600
1680
1679
1612
1638
1659
1680
1693
1680
1698
1696
1719
1739
1711
1740
1748
1783
1809
1807
1882
1870
1889
1863
1867
1839
1809
1776
1791
1810
1839
1845
1835
1826
1840
1862
1876
1891
1838
1825
1840
1877
1874
1862
1854
1915
1939
1918
1950
2061
2103
1961
1828
1792
1795
1838
1759
1749
1797
1805
1801
1767
1778
1803
1813
1786
1764
1754
1965
2892
4095
4095
3963
2630
1967
1659
1535
1535
1518
1502
1535
1605
1652
1615
1603
1642
1667
1711
1697
1706
1695
1715
1745
1687
1725
1742
1759
1814
1857
1877
1891
1865
1778
1756
1771
1738
1744
1747
1780
1807
1779
1782
1824
1843
1835
1778
1778
1829
1827
1810
1838
1835
1830
1825
1905
1935
1853
1905
2044
1986
1904
1823
1788
1767
1760
1758
1747
1738
1755
1763
1795
1776
1761
1777
1790
1756
1822
2229
3669
4095
4095
3263
2293
1776
1566
1487
1476
1520
1595
1600
1594
1638
1661
1635
1647
1711
1682
1681
1678
1667
1683
1743
1770
1751
1771
1822
1867
1861
1810
1792
1824
1795
1739
1720
1712
1742
1754
1778
1792
1758
1774
1773
1805
1804
1806
1806
1749
1782
1805
1833
1821
1750
1797
1871
1886
1892
1940
1991
1973
1897
1830
1776
1703
1686
1744
1765
1746
1746
1728
1779
1792
1798
1767
1762
1705
1794
2439
3918
4095
3786
2649
1971
1701
1610
1561
1499
1485
1562
1578
1637
1637
1600
1651
1665
1662
1680
1654
1669
1675
1701
1787
1744
1734
1792
1827
1872
1856
1843
1827
1813
1780
1765
1770
1737
1739
1791
1795
1788
1742
1807
1818
1801
1840
1841
1813
1779
1795
1829
1840
1853
1879
1919
1935
1942
2000
1969
1875
1841
1824
1777
1755
1727
1751
1771
1762
1751
1755
1789
1781
1745
1763
1722
1741
2044
3134
4095
4095
3136
2229
1819
1638
1535
1556
1596
1595
1600
1623
1666
1629
1645
1679
1678
1685
1663
1648
1654
1690
1757
1776
1808
1789
1776
1845
1840
1855
1867
1843
1815
1790
1828
1839
1779
1790
1816
1846
1808
1825
1813
1811
1829
1862
1846
1891
1878
1872
1845
1881
1939
1927
1968
1991
2044
2037
1995
1885
1840
1803
1775
1744
1786
1827
1785
1779
1785
1805
1823
1787
1882
1777
1792
2357
3943
4095
4095
3035
2171
1769
1617
1589
1633
1601
1554
1579
1606
1651
1703
1697
1694
1703
1727
1760
1712
1723
1746
1761
1789
1799
1841
1872
1841
1820
1856
1878
1853
1825
1794
1781
1787
1801
1826
1847
1808
1826
1809
1835
1900
1840
1803
1817
1841
1846
1841
1871
1853
1904
1929
1887
2006
2022
1963
1934
1890
1855
1794
1773
1770
1781
1798
1785
1776
1786
1785
1824
1775
1776
1746
1754
2093
3285
4095
4095
3470
2377
1829
1616
1535
1525
1571
1559
1527
1559
1594
1617
1655
1679
1713
1689
1676
1701
1665
1680
1716
1739
1772
1765
1808
1826
1855
1835
1811
1806
1803
1774
1714
1734
1759
1743
1781
1808
1757
1755
1763
1804
1804
1792
1786
1829
1851
1792
1789
1834
1845
1869
1840
1858
1944
1983
1952
1906
1850
1801
1771
1769
1731
1725
1737
1770
1776
1773
1795
1750
1733
1750
1693
1809
2517
4095
4095
4018
2711
1987
1664
1523
1495
1522
1526
1577
1574
1584
1603
1647
1634
1669
1680
1678
1670
1685
1706
1723
1744
1731
1705
1756
1791
1875
1853
1822
1810
1792
1781
1778
1772
1759
1697
1707
1734
1739
1787
1824
1793
1807
1807
1872
1790
1783
1853
1799
1762
1808
1891
1893
1902
1959
1991
1994
1952
1872
1801
1770
1709
1724
1720
1747
1719
1765
1776
1781
1805
1798
1808
1730
1830
2430
3825
4095
3583
2559
1965
1694
1597
1573
1576
1613
1628
1691
1643
1587
1619
1680
1702
1667
1643
1685
1714
1707
1749
1723
1744
1789
1773
1757
1809
1887
1869
1857
1855
1765
1783
1759
1770
1827
1786
1794
1794
1805
1839
1851
1857
1793
1818
1847
1823
1863
1885
1894
1953
1968
1909
1923
2010
2037
1967
1875
1867
1807
1749
1718
1719
1765
1802
1794
1781
1798
1808
1839
1799
1725
1767
2117
3302
4095
4095
3309
2317
1888
1644
1530
1535
1535
1591
1650
1635
1658
1675
1734
1715
1716
1741
1682
1655
1690
1725
1757
1744
1771
1825
1898
1920
1894
1872
1866
1815
1791
1792
1825
1826
1839
1840
1805
1834
1841
1815
1819
1856
1871
1871
1882
1901
1840
1842
1850
1887
1920
1918
1920
1957
1987
2023
1996
1945
1872
1810
1795
1794
1787
1762
1795
1792
1749
1785
1827
1781
1806
1807
1774
1989
2971
4095
4095
4017
2611
1909
1638
1529
1493
1507
1526
1584
1648
1598
1587
1638
1706
1662
1638
1675
1703
1706
1706
1722
1733
1761
1791
1808
1845
1875
1869
1825
1776
1746
1763
1747
1755
1751
1761
1758
1766
1802
1836
1793
1807
1810
1760
1776
1776
1787
1815
1847
1806
1837
1872
1904
1895
1887
1931
1939
1936
1872
1817
1799
1792
1759
1747
1744
1775
1741
1750
1760
1745
1773
1769
1722
1733
1999
3024
4095
4095
3634
2377
1797
1584
1510
1503
1516
1553
1535
1559
1613
1583
1621
1632
1639
1663
1671
1701
1741
1712
1661
1674
1744
1771
1741
1770
1812
1865
1829
1791
1725
1694
1758
1733
1713
1689
1708
1809
1771
1737
1776
1763
1786
1803
1821
1795
1826
1843
1810
1767
1853
1871
1853
1887
1966
2013
1926
1870
1786
1712
1737
1739
1744
1744
1773
1789
1759
1735
1731
1755
1787
1723
1734
1981
2940
4095
3970
3138
2226
1820
1600
1498
1531
1535
1584
1584
1619
1648
1667
1679
1675
1677
1681
1686
1738
1667
1670
1733
1738
1751
1793
1808
1872
1891
1911
1872
1821
1793
1775
1791
1767
1762
1744
1790
1791
1795
1798
1796
1809
1809
1872
1868
1819
1885
1863
1799
1856
1927
1923
1959
2033
2064
2034
1911
1872
1851
1743
1709
1705
1747
1787
1765
1787
1840
1840
1803
1808
1777
1808
2384
3840
4095
4004
2768
1968
1681
1623
1559
1570
1583
1595
1628
1666
1646
1616
1630
1638
1689
1728
1727
1729
1683
1698
1727
1781
1840
1764
1787
1861
1873
1890
1866
1850
1854
1836
1821
1815
1835
1795
1833
1830
1792
1799
1838
1854
1878
1870
1875
1840
1862
1936
1936
1909
1930
2009
2031
2011
1975
1875
1872
1818
1753
1761
1767
1779
1791
1782
1811
1786
1781
1824
1791
1758
1811
2430
4095
4095
4095
2815
2078
1745
1600
1514
1515
1535
1618
1575
1590
1598
1631
1662
1664
1691
1685
1710
1757
1762
1717
1742
1760
1769
1747
1823
1854
1884
1895
1831
1809
1872
1794
1726
1751
1767
1744
1763
1770
1805
1841
1840
1843
1838
1837
1863
1835
1812
1856
1881
1894
1871
1938
2032
2000
1951
1918
1799
1729
1728
1790
1781
1733
1729
1743
1767
1794
1823
1779
1744
1738
1808
2429
3949
4095
4067
2761
2002
1668
1535
1535
1501
1557
1601
1535
1574
1586
1621
1637
1653
1695
1677
1687
1662
1673
1748
1728
1734
1799
1801
1796
1823
1840
1793
1759
1773
1759
1742
1734
1703
1718
1713
1747
1742
1745
1758
1767
1808
1815
1747
1731
1779
1802
1805
1827
1839
1829
1902
1989
1981
1952
1872
1776
1731
1725
1758
1742
1733
1709
1683
1753
1738
1750
1781
1744
1729
1687
1918
2778
4053
3962
3216
2304
1822
1589
1579
1568
1529
1573
1638
1622
1603
1628
1650
1662
1673
1715
1701
1715
1683
1705
1713
1745
1762
1805
1881
1851
1846
1838
1863
1849
1802
1792
1776
1783
1802
1809
1821
1863
1793
1799
1812
1811
1853
1875
1845
1825
1873
1874
1881
1912
1889
1925
2015
2019
2073
2006
1906
1847
1809
1803
1748
1745
1790
1809
1843
1818
1813
1853
1835
1825
1782
1774
2064
3137
4095
4095
3166
2249
1845
1680
1632
1649
1603
1584
1619
1634
1692
1702
1744
1802
1736
1711
1703
1718
1769
1773
1770
1785
1808
1849
1888
1936
1879
1843
1872
1843
1791
1783
1783
1791
1803
1810
1808
1815
1821
1833
1840
1836
1840
1887
1854
1847
1845
1829
1827
1810
1856
1937
1936
1968
1951
1966
2015
2035
1914
1779
1775
1774
1761
1787
1764
1785
1823
1801
1779
1763
1809
1807
1805
1816
1981
2902
4095
4095
3519
2400
1862
1630
1558
1574
1567
1609
1642
1651
1586
1600
1680
1705
1715
1695
1709
1709
1713
1745
1799
1770
1791
1827
1846
1853
1840
1855
1870
1839
1758
1679
1723
1765
1776
1738
1714
1787
1826
1761
1744
1750
1776
1811
1801
1791
1770
1788
1827
1825
1839
1798
1811
1830
1835
1856
1890
1943
1969
1952
1954
1765
1783
1770
1744
1731
1735
1760
1744
1758
1795
1796
1749
1722
1754
1730
1754
2041
2986
4095
4095
3259
2273
1778
1586
1535
1502
1535
1535
1591
1637
1627
1648
1637
1667
1659
1637
1688
1707
1717
1700
1728
1795
1829
1801
1791
1808
1853
1865
1826
1825
1783
1747
1757
1755
1726
1757
1711
1712
1757
1734
1768
1789
1810
1795
1805
1767
1783
1823
1838
1808
1798
1843
1870
1805
1818
1839
1860
1878
1980
1981
1984
1968
1968
1834
1759
1759
1762
1775
1753
1721
1751
1791
1781
1734
1777
1794
1841
1745
1710
1840
2438
3827
4095
3517
2559
1961
1703
1610
1607
1563
1559
1589
1616
1660
1679
1663
1678
1665
1712
1744
1690
1718
1680
1675
1765
1787
1809
1845
1893
1975
1856
1813
1823
1847
1808
1774
1760
1773
1797
1808
1826
1790
1761
1795
1835
1847
1836
1819
1837
1870
1883
1859
1857
1871
1904
1856
1855
1863
1937
1943
1935
2000
2010
2015
1989
1904
1823
1803
1791
1819
1808
1782
1756
1783
1839
1819
1808
1819
1814
1818
1793
1840
2164
3328
4095
4095
3123
2225
1834
1631
1567
1578
1601
1640
1664
1701
1671
1665
1670
1694
1712
1733
1742
1771
1751
1731
1760
1840
1867
1858
1838
1874
1884
1872
1866
1869
1793
1753
1800
1815
1743
1743
1808
1823
1779
1762
1821
1814
1830
1857
1846
1839
1831
1857
1878
1875
1826
1824
1822
1850
1853
1845
1842
1887
1930
1977
2000
2033
2026
1916
1854
1870
1777
1776
1793
1765
1780
1783
1792
1799
1811
1861
1809
1819
1811
1728
1905
2736
4095
4095
3853
2559
1939
1680
1568
1534
1610
1527
1535
1654
1625
1655
1617
1633
1681
1699
1747
1715
1711
1781
1758
1774
1782
1827
1839
1840
1885
1846
1811
1803
1797
1782
1740
1747
1749
1721
1735
1763
1771
1731
1743
1767
1781
1791
1781
1796
1815
1789
1781
1799
1797
1808
1807
1809
1837
1860
1776
1799
1862
1895
1919
1977
1938
1883
1871
1792
1746
1750
1755
1744
1744
1793
1744
1705
1739
1746
1787
1785
1776
1733
1872
2559
3979
4095
3439
2459
1889
1682
1589
1582
1569
1590
1570
1590
1648
1639
1643
1659
1705
1678
1665
1683
1691
1743
1764
1719
1717
1735
1810
1853
1856
1897
1831
1802
1815
1789
1798
1761
1785
1772
1747
1773
1815
1797
1776
1747
1809
1827
1863
1835
1819
1850
1866
1847
1856
1856
1893
1837
1855
1941
1961
2000
2037
2047
1986
1851
1821
1885
1814
1764
1743
1776
1808
1827
1815
1810
1820
1845
1872
1807
1795
1901
2426
4010
4095
3897
2714
2046
1744
1656
1612
1597
1600
1670
1664
1649
1663
1667
1750
1733
1712
1715
1734
1776
1802
1709
1733
1787
1840
1858
1867
1936
1980
1966
1873
1813
1823
1795
1792
1786
1789
1808
1791
1809
1857
1830
1815
1841
1882
1834
1840
1871
1892
1841
1827
1827
1875
1922
1906
1829
1840
1872
1892
1936
2023
2045
1998
1902
1854
1821
1823
1853
1781
1746
1766
1783
1801
1805
1803
1825
1851
1792
1733
1967
2950
4095
4095
3575
2443
1915
1653
1600
1566
1589
1535
1535
1596
1606
1652
1666
1664
1705
1693
1712
1734
1785
1755
1703
1744
1806
1808
1829
1883
1933
1938
1902
1838
1794
1798
1767
1709
1727
1744
1783
1776
1770
1767
1770
1837
1853
1808
1814
1776
1772
1814
1787
1819
1805
1838
1840
1836
1908
1922
1921
1926
1968
1939
1904
1829
1792
1797
1773
1736
1758
1733
1734
1743
1743
1749
1735
1747
1759
1744
1757
2075
3086
4095
4095
3168
2263
1739
1499
1482
1503
1520
1563
1600
1569
1584
1571
1614
1727
1667
1601
1634
1641
1661
1665
1686
1713
1778
1789
1797
1855
1911
1884
1804
1761
1732
1712
1698
1739
1739
1697
1721
1739
1779
1744
1731
1772
1807
1775
1722
1754
1774
1777
1790
1793
1803
1767
1779
1835
1861
1919
1879
1923
1967
1916
1817
1789
1744
1747
1749
1763
1773
1765
1743
1725
1744
1708
1729
1777
1719
1775
2167
3239
4095
3801
2815
2067
1748
1616
1584
1566
1567
1585
1619
1654
1650
1616
1638
1658
1713
1709
1690
1698
1678
1695
1706
1712
1746
1808
1851
1884
1913
1907
1855
1795
1825
1872
1783
1717
1709
1739
1791
1841
1868
1797
1834
1847
1867
1776
1766
1827
1820
1849
1902
1897
1846
1806
1844
1904
1906
1935
2003
2028
1991
1923
1874
1856
1823
1810
1759
1728
1759
1771
1766
1771
1809
1793
1819
1817
1792
2129
3217
4095
4095
3104
2195
1791
1629
1616
1591
1591
1626
1653
1655
1643
1680
1645
1645
1679
1693
1705
1711
1712
1745
1741
1740
1734
1776
1856
1872
1895
1840
1838
1840
1840
1839
1801
1794
1803
1761
1803
1776
1765
1744
1759
1807
1841
1842
1833
1837
1871
1871
1869
1803
1745
1793
1825
1891
1904
1898
1936
1984
2060
2059
1877
1753
1766
1766
1775
1765
1783
1808
1807
1808
1781
1792
1765
1728
1731
1731
1970
2911
4095
4095
3696
2471
1853
1649
1535
1494
1531
1535
1587
1648
1648
1712
1664
1659
1691
1689
1699
1667
1676
1710
1719
1793
1827
1795
1838
1887
1923
1847
1837
1840
1845
1834
1780
1805
1801
1797
1808
1763
1728
1759
1811
1843
1822
1818
1857
1882
1885
1878
1886
1822
1742
1779
1829
1829
1855
1920
1953
1945
2032
2047
1931
1855
1807
1774
1799
1791
1773
1777
1808
1791
1794
1808
1755
1744
1775
1755
1801
2091
3225
4095
4095
3462
2354
1850
1650
1523
1450
1474
1521
1584
1654
1648
1616
1633
1705
1702
1634
1617
1647
1702
1719
1724
1733
1798
1810
1812
1831
1870
1860
1826
1808
1821
1799
1749
1726
1694
1767
1781
1764
1727
1739
1765
1770
1799
1819
1807
1786
1821
1819
1807
1767
1787
1797
1782
1820
1859
1893
1879
1934
2003
1959
1875
1808
1731
1744
1761
1744
1733
1767
1779
1729
1739
1777
1785
1776
1763
1695
1744
2265
3583
4095
3686
2691
2006
1744
1610
1605
1520
1535
1605
1637
1651
1646
1614
1635
1634
1707
1694
1673
1698
1683
1727
1742
1782
1770
1744
1824
1862
1925
1879
1853
1849
1761
1759
1793
1796
1798
1789
1735
1744
1764
1802
1803
1840
1878
1843
1837
1820
1847
1840
1838
1836
1826
1870
1915
1977
1936
1882
1967
1987
1983
1928
1843
1831
1809
1840
1871
1747
1741
1770
1769
1808
1808
1841
1831
1801
1783
1915
2638
4095
4095
3725
2559
1985
1714
1607
1605
1626
1625
1605
1643
1683
1695
1711
1644
1675
1747
1742
1737
1749
1733
1753
1745
1794
1808
1840
1894
1875
1894
1910
1947
1930
1808
1791
1786
1794
1855
1874
1825
1823
1840
1866
1840
1824
1856
1874
1884
1873
1904
1921
1895
1892
1819
1808
1865
1904
1969
1954
1940
2017
2047
2034
1942
1888
1806
1781
1793
1778
1808
1809
1824
1793
1775
1857
1819
1776
1769
1816
2239
3536
4095
4095
3275
2295
1795
1598
1567
1533
1535
1616
1599
1642
1659
1631
1677
1724
1731
1698
1667
1706
1698
1714
1766
1801
1825
1818
1857
1898
1904
1863
1833
1809
1779
1769
1797
1763
1743
1744
1783
1776
1791
1797
1767
1773
1785
1831
1840
1793
1825
1809
1822
1861
1866
1795
1765
1823
1882
1892
1923
1964
2000
1937
1867
1813
1810
1759
1782
1733
1726
1738
1763
1807
1792
1781
1765
1784
1782
1719
1937
2742
4095
4095
3822
2559
1925
1632
1553
1495
1495
1581
1610
1535
1523
1575
1604
1622
1661
1671
1678
1703
1717
1669
1675
1764
1766
1758
1777
1817
1847
1866
1810
1814
1803
1777
1744
1739
1706
1679
1709
1744
1765
1744
1731
1808
1765
1750
1811
1795
1777
1757
1781
1826
1799
1803
1797
1783
1828
1825
1901
1939
1985
1925
1865
1808
1776
1771
1746
1715
1777
1751
1723
1738
1739
1740
1746
1782
1786
1712
1856
2598
3994
4095
3376
2464
1951
1651
1561
1518
1515
1524
1584
1631
1628
1658
1669
1686
1712
1648
1669
1722
1669
1666
1679
1712
1753
1789
1840
1830
1905
1904
1840
1807
1746
1749
1758
1782
1831
1744
1746
1715
1791
1746
1747
1791
1791
1791
1805
1815
1823
1803
1808
1817
1807
1828
1814
1856
1879
1849
1922
1955
2002
1985
1923
1886
1798
1725
1711
1778
1810
1739
1749
1771
1760
1811
1841
1808
1743
1702
1880
2389
3783
4095
3793
2710
1998
1726
1602
1562
1613
1585
1584
1621
1639
1702
1680
1683
1685
1695
1726
1686
1692
1734
1698
1747
1760
1807
1791
1831
1903
1910
1920
1891
1909
1847
1792
1798
1826
1773
1782
1786
1840
1875
1833
1856
1856
1839
1880
1853
1867
1874
1873
1872
1861
1857
1873
1938
1964
1950
1970
2035
2047
1953
1916
1870
1815
1808
1815
1794
1805
1755
1801
1817
1797
1822
1840
1791
1790
1808
1850
2384
4085
4095
4095
2962
2157
1779
1573
1520
1604
1568
1561
1616
1641
1681
1662
1680
1728
1743
1783
1711
1686
1712
1733
1775
1776
1809
1832
1901
1904
1888
1872
1892
1836
1794
1785
1808
1814
1787
1809
1792
1779
1804
1798
1845
1792
1808
1847
1854
1902
1823
1821
1840
1840
1891
1875
1836
1858
1889
1905
1902
1921
1937
2017
2010
1936
1884
1812
1791
1807
1789
1789
1769
1767
1761
1754
1818
1851
1795
1777
1757
1798
2179
3419
4095
4095
3207
2224
1776
1595
1535
1557
1527
1567
1600
1601
1613
1647
1659
1645
1664
1713
1745
1721
1714
1726
1778
1768
1758
1776
1837
1842
1887
1878
1868
1811
1790
1762
1734
1777
1743
1733
1713
1726
1771
1808
1793
1779
1749
1823
1817
1814
1814
1777
1793
1783
1819
1777
1778
1849
1904
1890
1882
1951
2017
1959
1856
1816
1759
1741
1730
1757
1785
1767
1774
1782
1813
1774
1732
1759
1756
1749
1853
2413
3827
4095
3826
2657
1925
1661
1535
1535
1573
1571
1533
1525
1623
1680
1646
1630
1629
1671
1724
1678
1697
1693
1695
1710
1724
1775
1781
1808
1843
1877
1888
1833
