ecg_value
1907
1837
1839
1805
1775
1783
1743
1808
1811
1792
1792
1652
1744
2063
2758
3282
2893
2469
2045
1730
1680
1647
1713
1709
1713
1767
1747
1811
1810
1835
1895
1866
1898
1899
1899
1943
1898
1909
1887
1870
1900
1855
1878
1857
1853
1856
1810
1835
1837
1838
1891
1831
1866
1865
1840
1879
1824
1861
1878
1858
1888
1834
1900
1916
1952
2064
2047
2055
1935
1824
1854
1793
1770
1741
1719
1739
1693
1743
1751
1648
1648
1849
2433
3161
2995
2533
2073
1840
1665
1631
1674
1641
1709
1729
1761
1831
1809
1859
1873
1856
1916
1909
1932
1891
1882
1856
1807
1810
1803
1808
1813
1729
1755
1765
1740
1747
1707
1776
1793
1787
1749
1680
1776
1808
1787
1855
1811
1872
1840
1798
1926
1917
1980
2064
1994
1965
1965
1904
1741
1758
1890
1858
1840
1748
1818
1872
1826
1725
1598
1700
2231
3442
4095
3525
2503
1861
1529
1571
1604
1535
1666
1402
1155
844
1094
1479
1642
1863
2271
2255
2139
2062
2074
2038
2003
2031
1978
2017
2007
2006
2025
1968
1979
1931
1869
1886
1840
1843
1758
1758
1802
1728
1758
1743
1702
1738
1675
1706
1731
1734
1840
1847
1896
1840
1740
1769
1680
1678
1674
1633
1687
1631
1674
1675
1669
1712
1597
1517
1635
2198
3495
3663
2917
2205
1729
1596
1535
1613
1618
1628
1696
1690
1739
1747
1776
1840
1840
1867
1901
1890
1936
1904
1923
1901
1887
1917
1865
1913
1907
1877
1916
1877
1906
1891
1874
1910
1871
1899
1897
1901
1935
1894
1921
1903
1903
1923
1879
1979
1984
2033
2131
2059
2031
1956
1902
1895
1807
1815
1805
1801
1839
1808
1843
1822
1789
1680
1697
2133
3031
3639
3120
2435
2054
1744
1661
1709
1683
1733
1744
1745
1808
1791
1837
1843
1831
1875
1841
1871
1869
1855
1872
1824
1872
1840
1821
1857
1834
1862
1851
1840
1872
1820
1837
1813
1813
1861
1821
1873
1854
1842
1878
1846
1875
1847
1872
1939
1938
2067
2058
1989
1964
1878
1878
1812
1774
1785
1744
1781
1776
1753
1796
1723
1610
1643
2000
2818
3311
2960
2419
2023
1754
1616
1656
1673
1664
1718
1707
1748
1775
1769
1815
1809
1839
1833
1830
1853
1808
1840
1823
1809
1840
1809
1840
1839
1852
1895
1840
1858
1840
1831
1854
1812
1856
1851
1840
1877
1854
1855
1847
1824
1875
1872
1924
1973
2023
2055
1966
1950
1888
1833
1840
1761
1776
1752
1755
1789
1735
1776
1639
1579
1808
2322
3201
3207
2706
2293
1869
1670
1629
1635
1682
1669
1715
1722
1746
1789
1759
1808
1797
1810
1850
1811
1842
1827
1820
1843
1807
1820
1821
1819
1874
1826
1856
1831
1813
1859
1829
1860
1867
1843
1886
1845
1891
1872
1863
1888
1839
1911
1905
1938
2079
2031
2010
1931
1865
1867
1797
1805
1789
1770
1811
1779
1788
1791
1713
1614
1719
2237
3067
3225
2795
2270
1910
1658
1606
1650
1614
1661
1670
1696
1741
1712
1761
1776
1785
1831
1785
1817
1808
1785
1821
1776
1811
1813
1818
1855
1814
1872
1837
1805
1841
1785
1818
1835
1810
1861
1821
1855
1843
1840
1861
1829
1902
1906
1903
2032
2043
2047
1980
1922
1904
1853
1840
1811
1792
1827
1793
1822
1806
1767
1667
1639
2029
2790
3392
3088
2485
2102
1774
1644
1670
1652
1698
1711
1712
1747
1735
1783
1790
1798
1846
1793
1830
1826
1823
1847
1802
1825
1825
1820
1853
1817
1859
1843
1850
1870
1813
1840
1840
1823
1859
1840
1873
1856
1847
1894
1843
1907
1945
1947
2073
2056
2027
1971
1895
1894
1808
1819
1795
1766
1821
1776
1805
1789
1737
1618
1692
2146
2913
3248
2864
2325
2019
1733
1645
1680
1662
1699
1713
1708
1754
1740
1786
1799
1806
1847
1808
1839
1837
1821
1840
1810
1830
1813
1809
1840
1805
1839
1843
1825
1851
1815
1840
1825
1835
1841
1830
1853
1858
1841
1871
1858
1909
1929
2005
2085
1997
1962
1903
1847
1850
1806
1791
1776
1767
1806
1775
1777
1741
1572
1679
2027
2843
3341
2914
2441
2027
1751
1658
1664
1693
1678
1715
1731
1730
1791
1767
1801
1808
1812
1856
1810
1835
1822
1793
1835
1791
1826
1824
1828
1870
1839
1867
1854
1829
1858
1818
1852
1834
1859
1875
1853
1883
1871
1863
1920
1911
1973
2067
2047
2032
1944
1920
1873
1815
1808
1770
1785
1795
1776
1803
1786
1747
1614
1712
2211
3086
3407
2895
2334
1957
1666
1638
1647
1633
1685
1668
1726
1725
1727
1793
1774
1811
1815
1808
1840
1801
1811
1808
1793
1820
1767
1812
1808
1805
1840
1799
1811
1815
1789
1840
1794
1850
1854
1843
1890
1841
1869
1858
1871
1926
1926
2042
2017
1963
1938
1855
1867
1810
1771
1790
1744
1765
1767
1744
1776
1693
1604
1680
2089
2998
3365
2959
2400
1954
1712
1609
1650
1662
1664
1722
1681
1729
1743
1754
1803
1787
1821
1826
1819
1857
1799
1821
1802
1786
1827
1791
1811
1826
1812
1847
1807
1830
1814
1798
1856
1827
1842
1841
1829
1866
1834
1853
1863
1889
1939
1975
2070
2033
1965
1920
1845
1840
1810
1766
1793
1744
1771
1773
1751
1779
1633
1645
1914
2559
3327
3011
2525
2120
1773
1666
1620
1670
1671
1675
1732
1717
1766
1792
1780
1827
1782
1823
1831
1821
1855
1811
1845
1822
1808
1839
1797
1833
1841
1831
1858
1822
1855
1839
1807
1840
1814
1856
1854
1846
1880
1839
1871
1898
1915
1984
2017
2057
2005
1936
1900
1809
1812
1778
1734
1769
1737
1776
1777
1768
1754
1591
1779
2203
2902
3047
2559
2219
1921
1694
1664
1621
1680
1681
1680
1735
1721
1765
1773
1775
1838
1802
1833
1813
1789
1799
1758
1789
1776
1770
1808
1772
1822
1814
1797
1837
1783
1810
1808
1812
1862
1836
1851
1862
1843
1889
1840
1867
1911
1927
1990
2016
2073
2030
1970
1964
1872
1859
1809
1767
1803
1769
1795
1779
1776
1780
1627
1747
2161
2978
3376
2795
2319
1965
1712
1698
1664
1722
1728
1728
1779
1746
1813
1821
1826
1878
1833
1874
1872
1840
1884
1840
1843
1833
1823
1870
1839
1867
1867
1850
1889
1839
1858
1845
1835
1879
1862
1882
1874
1879
1935
1888
1888
1882
1887
1987
1989
2085
2097
2040
2002
1893
1870
1853
1821
1830
1765
1774
1765
1733
1745
1678
1617
1611
1921
2790
3472
3105
2445
1943
1679
1575
1623
1631
1641
1697
1651
1698
1710
1710
1760
1743
1778
1802
1776
1811
1767
1808
1780
1750
1795
1741
1751
1757
1762
1796
1744
1771
1781
1757
1797
1767
1808
1821
1794
1824
1792
1822
1827
1829
1859
1820
1857
1897
1907
2044
2029
1994
1936
1872
1889
1810
1789
1776
1756
1787
1743
1776
1793
1717
1648
1716
2223
3239
3489
2960
2304
1889
1694
1639
1683
1651
1694
1699
1712
1760
1747
1795
1802
1808
1847
1818
1840
1840
1831
1866
1819
1851
1837
1813
1840
1807
1833
1819
1779
1805
1778
1814
1806
1793
1814
1771
1809
1821
1810
1853
1808
1834
1822
1813
1863
1862
1911
2000
1993
1997
1890
1869
1833
1774
1780
1731
1754
1749
1745
1786
1728
1734
1616
1674
2073
2860
3243
2925
2377
1952
1647
1639
1643
1631
1693
1685
1717
1735
1712
1802
1791
1803
1791
1802
1829
1782
1809
1815
1809
1825
1781
1821
1821
1802
1840
1776
1793
1798
1781
1823
1808
1838
1815
1821
1858
1826
1847
1847
1828
1863
1825
1856
1846
1819
1865
1861
1899
1988
1991
1999
1906
1878
1847
1806
1807
1758
1771
1773
1761
1790
1761
1745
1631
1683
2043
2817
3261
2927
2432
2021
1697
1669
1669
1680
1744
1714
1744
1759
1755
1796
1791
1843
1858
1856
1887
1850
1865
1859
1852
1873
1843
1870
1840
1821
1849
1809
1840
1842
1835
1852
1813
1839
1855
1835
1867
1843
1871
1874
1866
1915
1879
1904
1895
1873
1933
1931
2002
2103
2098
2091
1978
1950
1922
1879
1882
1829
1856
1837
1847
1869
1827
1822
1719
1898
2389
3025
3045
2638
2286
2026
1770
1749
1767
1776
1808
1783
1834
1841
1850
1901
1877
1915
1916
1921
1953
1904
1929
1904
1919
1932
1875
1924
1897
1872
1873
1871
1893
1863
1851
1875
1837
1876
1883
1865
1894
1873
1905
1878
1863
1897
1856
1873
1874
1897
1940
1984
2085
2065
1985
1930
1853
1853
1837
1798
1808
1744
1754
1776
1749
1760
1630
1622
1887
2545
3277
2962
2505
2077
1712
1626
1614
1659
1649
1647
1712
1695
1748
1754
1742
1812
1807
1835
1855
1835
1863
1824
1853
1818
1801
1893
1919
1854
1873
1882
1807
1698
1739
1787
1783
1826
1807
1808
1840
1904
1953
1776
1791
1776
1728
1775
1798
1856
1861
1931
2138
2014
1952
1905
1893
1874
1804
1818
1794
1774
1793
1769
1826
1872
1787
1695
1728
2235
3249
3395
2945
2384
1963
1715
1659
1684
1684
1743
1758
1780
1853
1823
1842
1849
1861
1934
1887
1929
1923
1910
1907
1853
1903
1885
1856
1936
1841
1856
1856
1821
1824
1791
1840
1831
1813
1853
1827
1865
1847
1845
1898
1839
1842
1840
1836
1877
1872
1903
1935
2032
2073
1967
1927
1904
1842
1808
1755
1776
1764
1733
1771
1755
1781
1712
1610
1777
2211
3107
3242
2795
2318
1862
1666
1629
1636
1695
1680
1713
1715
1738
1793
1775
1797
1827
1846
1899
1858
1905
1872
1831
1867
1836
1859
1855
1840
1851
1804
1823
1792
1779
1808
1771
1797
1805
1811
1817
1806
1843
1830
1799
1835
1802
1827
1817
1795
1829
1842
1909
1977
2032
2032
1939
1899
1840
1791
1795
1731
1754
1749
1744
1785
1763
1777
1662
1680
2007
2559
3138
2821
2403
2097
1758
1658
1648
1635
1699
1680
1735
1759
1756
1806
1771
1807
1839
1810
1840
1795
1840
1840
1810
1840
1793
1826
1840
1820
1825
1773
1813
1790
1746
1799
1773
1798
1794
1802
1858
1815
1840
1866
1860
1920
1812
1808
1836
1894
1904
1858
1956
2005
1987
1951
1893
1879
1831
1808
1882
1802
1765
1773
1741
1782
1692
1652
1824
2221
3008
3171
2769
2369
2042
1841
1697
1694
1723
1753
1825
1794
1834
1878
1874
1905
1856
1904
1922
1915
1951
1907
1917
1906
1875
1879
1843
1871
1883
1855
1877
1811
1851
1863
1845
1877
1853
1883
1896
1882
1875
1828
1866
1853
1835
1878
1871
1883
1893
1935
2046
2147
2137
2034
1959
1984
1931
1920
1858
1865
1835
1773
1827
1834
1824
1818
1745
1823
2224
3269
3581
2889
2346
1901
1651
1663
1635
1680
1684
1660
1761
1761
1764
1765
1789
1840
1835
1927
1888
1833
1862
1847
1868
1861
1864
1871
1843
2017
1872
1714
1731
1732
1774
1759
1757
1789
1758
1794
1771
1761
1802
1776
1797
1778
1781
1822
1804
1879
1875
2011
2136
1993
1939
1873
1841
1825
1771
1770
1754
1743
1769
1732
1776
1789
1696
1677
1799
2315
3203
3216
2750
2183
1805
1616
1598
1651
1631
1701
1709
1750
1777
1713
1754
1813
1926
1950
1830
1785
1834
2021
1971
1808
1876
1870
1923
2130
1789
1810
1899
1694
1667
1681
1765
1787
1799
1855
1857
1910
1907
1894
1905
1853
1869
1823
1808
1870
1893
1979
2071
2186
2322
2209
2029
1987
1980
2020
1959
1947
1855
1830
1872
1956
1964
1694
1648
2187
2682
3225
2944
2495
2160
1776
1638
1664
1733
1787
1689
1706
1715
1904
1951
1750
1727
1799
1873
1906
1882
1915
1888
1879
1939
1890
1863
1843
1854
1877
1863
1931
1840
1776
1942
1916
1821
1769
1797
2000
1904
1840
1811
1747
1800
1803
1894
1869
1925
1873
1808
1906
2146
2153
1955
1857
1872
1808
1766
1757
1711
1791
1804
1786
1841
1857
1765
1723
1841
2270
2963
3055
2672
2276
1947
1666
1660
1684
1712
1726
1648
1746
1787
1744
1758
1751
1835
1824
1811
1855
1823
1850
1826
1797
1853
1780
1806
1834
1808
1808
1786
1821
1779
1746
1782
1758
1821
1847
1819
1858
1776
1812
1819
1802
1825
1813
1801
1840
1865
1895
2054
2067
1941
1863
1851
1787
1787
1749
1715
1739
1705
1738
1709
1722
1742
1577
1563
1860
2551
3281
2989
2511
2043
1631
1535
1517
1585
1597
1609
1680
1675
1744
1743
1712
1725
1698
1770
1799
1822
1842
1748
1742
1747
1781
1795
1737
1744
1765
1761
1785
1754
1776
1775
1787
1815
1727
1767
1783
1776
1845
1805
1839
1812
1776
1791
1777
1857
1905
1876
2026
2017
2043
1941
1850
1847
1809
1878
1782
1708
1750
1744
1781
1776
1751
1684
1648
2000
2745
3339
2952
2448
2032
1685
1597
1648
1633
1651
1670
1707
1743
1710
1759
1776
1794
1825
1808
1857
1846
1835
1878
1840
1862
1825
1797
1804
1774
1798
1783
1776
1775
1722
1754
1770
1744
1767
1782
1803
1779
1733
1745
1698
1717
1760
1741
1747
1792
1808
1857
1902
1935
1866
1824
1750
1681
1677
1627
1669
1629
1610
1632
1560
1598
1517
1421
1650
2127
2818
2677
2253
1939
1616
1427
1392
1409
1456
1393
1429
1495
1495
1471
1423
1494
1567
1515
1520
1494
1505
1501
1497
1556
1488
1520
1487
1419
1437
1389
1403
1413
1482
1457
1470
1488
1424
1408
1446
1429
1483
1510
1474
1535
1515
1535
1508
1509
1608
1669
1705
1734
1669
1598
1517
1530
1502
1436
1458
1444
1459
1467
1463
1527
1441
1418
1615
2165
2859
2613
2191
1845
1589
1488
1443
1472
1453
1515
1535
1535
1567
1558
1562
1648
1664
1691
1714
1632
1659
1652
1717
1707
1606
1645
1646
1723
1723
1648
1686
1708
1734
1711
1665
1715
1758
1818
1747
1748
1825
1825
1869
1872
1825
1932
1950
1951
1935
2011
2123
2077
2091
2061
2039
2059
1883
1925
1895
1856
1942
1950
1963
1913
1961
1865
1933
2559
3567
3376
2869
2464
2075
1910
1789
1825
1815
1863
1894
1904
1967
2019
1987
1942
1949
2061
2085
2063
2030
1999
2047
2032
2061
2035
1999
2047
2067
2095
2026
1987
2036
2007
2013
2061
2023
2067
2022
2000
2034
2043
2111
2032
2018
2047
2064
2114
2128
2239
2250
2183
2178
2069
2016
2000
2011
1980
1925
1959
1984
1954
1983
1915
1833
1861
2096
2843
3768
3419
2809
2282
1967
1759
1773
1814
1851
1919
1877
1862
1859
1893
1968
1936
1963
1981
1990
2031
1998
2000
1973
1983
2014
1929
1968
1970
1923
1964
1903
1904
1922
1888
1923
1901
1919
1945
1934
1968
1920
1971
1972
1893
1939
1927
1926
1977
1965
2087
2110
2070
2031
1986
1981
1895
1856
1850
1808
1855
1821
1834
1840
1813
1787
1680
1843
2354
3236
3324
2770
2269
1853
1634
1650
1655
1691
1694
1680
1719
1712
1776
1799
1765
1808
1786
1825
1858
1838
1854
1785
1791
1794
1775
1787
1747
1741
1744
1733
1744
1718
1713
1712
1695
1762
1709
1694
1750
1712
1715
1705
1719
1729
1674
1715
1738
1797
1879
1917
1939
1849
1774
1749
1696
1725
1674
1696
1703
1669
1716
1691
1686
1645
1488
1623
1990
2766
3051
2649
2289
1903
1626
1535
1530
1600
1587
1616
1638
1621
1701
1696
1713
1754
1734
1779
1757
1805
1807
1777
1812
1789
1791
1771
1734
1759
1738
1783
1762
1735
1787
1744
1769
1824
1752
1769
1776
1811
1827
1788
1835
1790
1794
1809
1841
1919
1933
2017
2037
1965
1951
1878
1854
1805
1755
1783
1747
1775
1794
1764
1819
1722
1664
1865
2325
3102
3047
2640
2267
1967
1784
1689
1713
1714
1703
1791
1771
1794
1824
1811
1872
1855
1923
1941
1910
1937
1872
1886
1904
1846
1874
1858
1890
1904
1888
1920
1859
1853
1874
1872
1917
1886
1903
1887
1869
1945
1905
1936
1942
1918
1950
1907
1971
2021
2045
2130
2115
2064
1995
1927
1936
1874
1890
1888
1840
1871
1845
1867
1867
1758
1799
2044
2657
3348
3005
2598
2203
1927
1799
1745
1779
1754
1789
1827
1829
1887
1850
1897
1927
1941
1981
1936
1951
1951
1921
1977
1934
1965
1947
1933
1973
1929
1947
1959
1944
1961
1930
1943
1950
1935
1987
1967
1991
1982
1952
1986
1946
1967
1961
1969
2039
2027
2125
2151
2100
2066
1982
1955
1949
1888
1891
1829
1862
1846
1823
1861
1840
1757
1729
2023
2826
3696
3184
2594
2112
1829
1677
1703
1753
1744
1792
1775
1822
1840
1851
2012
2035
2073
2096
2064
2099
2047
2058
2054
2000
2023
1971
1968
1968
1939
1967
1923
1942
1968
1955
1962
1913
1936
1951
1931
1965
1923
1947
1954
1910
1936
1899
1968
2007
2014
2129
2058
1998
1945
1904
1903
1827
1826
1837
1786
1809
1791
1809
1809
1744
1670
1717
2183
3134
3468
2974
2358
1921
1679
1616
1664
1654
1680
1701
1684
1728
1707
1759
1807
1797
1835
1797
1831
1865
1841
1858
1825
1830
1817
1769
1808
1770
1782
1791
1775
1786
1738
1774
1802
1761
1786
1765
1814
1810
1791
1845
1794
1817
1830
1797
1866
1870
1913
2007
1985
1984
1901
1870
1835
1773
1787
1728
1739
1744
1731
1762
1716
1712
1618
1591
1904
2621
3457
3223
2603
2100
1670
1559
1571
1574
1627
1627
1649
1680
1677
1745
1744
1786
1812
1771
1808
1792
1809
1834
1797
1818
1799
1799
1808
1774
1807
1766
1767
1780
1733
1776
1747
1741
1775
1746
1795
1765
1777
1792
1755
1799
1761
1779
1827
1813
1911
1956
1978
1971
1904
1902
1834
1792
1763
1723
1766
1744
1749
1775
1749
1782
1645
1635
1938
2587
3312
3022
2589
2191
1758
1645
1612
1646
1680
1671
1729
1712
1746
1782
1776
1830
1827
1840
1872
1853
1883
1840
1843
1843
1808
1840
1795
1795
1817
1797
1811
1753
1766
1787
1762
1810
1788
1816
1837
1808
1853
1834
1857
1867
1822
1856
1858
1900
1962
2017
2064
2000
1945
1892
1839
1853
1795
1808
1797
1778
1808
1778
1802
1756
1602
1771
2185
2999
3295
2832
2394
1995
1723
1658
1631
1679
1663
1702
1729
1744
1808
1794
1819
1829
1834
1893
1868
1882
1872
1852
1863
1818
1824
1840
1807
1840
1822
1821
1838
1791
1827
1806
1829
1850
1808
1853
1840
1861
1863
1841
1872
1827
1815
1871
1878
1968
2024
2037
2015
1917
1907
1842
1831
1837
1773
1793
1753
1791
1789
1770
1775
1634
1723
2113
2959
3475
3012
2464
2009
1670
1641
1636
1666
1699
1693
1745
1738
1761
1787
1797
1847
1826
1841
1863
1854
1882
1843
1858
1860
1850
1861
1823
1834
1855
1829
1845
1788
1796
1827
1795
1835
1799
1821
1833
1828
1857
1823
1845
1842
1813
1888
1901
1966
2055
2003
2014
1923
1901
1862
1793
1798
1751
1779
1795
1773
1817
1795
1759
1639
1723
2189
3039
3433
2993
2389
1961
1648
1602
1630
1616
1675
1677
1716
1742
1729
1790
1783
1806
1827
1815
1872
1849
1856
1863
1841
1854
1821
1840
1855
1809
1839
1787
1798
1823
1792
1827
1821
1809
1809
1797
1822
1788
1795
1823
1791
1830
1798
1849
1889
1988
2062
1979
1951
1904
1815
1805
1742
1745
1773
1716
1752
1727
1743
1766
1648
1651
1902
2467
3254
3071
2618
2149
1806
1664
1633
1680
1658
1691
1727
1706
1764
1766
1799
1849
1821
1870
1868
1872
1878
1844
1878
1847
1841
1854
1824
1863
1819
1813
1831
1808
1840
1815
1826
1850
1803
1845
1838
1870
1895
1847
1873
1851
1867
1920
1915
1984
2042
2077
2045
1937
1922
1858
1831
1811
1776
1808
1791
1801
1810
1770
1767
1616
1733
2155
2935
3365
2915
2417
2045
1726
1688
1687
1714
1710
1693
1745
1723
1745
1797
1806
1857
1844
1879
1905
1872
1909
1873
1873
1887
1843
1871
1841
1847
1855
1813
1847
1810
1809
1834
1794
1858
1830
1835
1864
1829
1872
1844
1865
1887
1895
1935
1963
2073
2077
1998
1968
1901
1873
1853
1785
1792
1775
1775
1792
1776
1808
1739
1617
1719
2112
3071
3497
3027
2475
1963
1686
1619
1661
1675
1631
1698
1697
1729
1779
1765
1813
1812
1833
1869
1869
1904
1881
1859
1877
1845
1857
1823
1809
1840
1808
1828
1804
1799
1819
1785
1837
1819
1826
1854
1830
1863
1834
1827
1850
1809
1875
1891
1910
2015
2033
2032
1938
1898
1896
1813
1813
1751
1762
1771
1733
1776
1762
1772
1702
1597
1834
2401
3323
3335
2768
2261
1790
1629
1644
1623
1677
1666
1697
1745
1725
1781
1785
1799
1838
1824
1871
1847
1858
1877
1840
1877
1842
1851
1863
1823
1835
1812
1808
1840
1809
1829
1803
1809
1827
1819
1851
1841
1855
1863
1841
1872
1843
1862
1936
1922
2054
2061
2014
1987
1908
1907
1836
1804
1794
1748
1780
1774
1776
1783
1742
1671
1639
1943
2663
3361
3152
2590
2122
1751
1627
1648
1629
1648
1687
1682
1743
1731
1758
1791
1781
1833
1812
1827
1857
1830
1858
1819
1825
1838
1798
1824
1808
1813
1809
1783
1800
1775
1780
1808
1779
1834
1826
1810
1835
1793
1826
1814
1831
1827
1840
1903
1906
2002
2021
1968
1931
1859
1826
1808
1751
1734
1731
1732
1770
1727
1761
1714
1598
1654
1989
2827
3318
2977
2481
2000
1712
1603
1622
1648
1637
1677
1680
1712
1748
1737
1781
1778
1814
1839
1822
1883
1853
1839
1854
1814
1845
1802
1795
1813
1795
1831
1799
1808
1821
1776
1789
1789
1808
1823
1810
1843
1825
1834
1840
1820
1872
1872
1911
1981
2032
2027
1959
1927
1905
1850
1823
1776
1779
1798
1753
1781
1771
1791
1755
1605
1738
2151
3047
3383
2882
2385
1930
1676
1651
1630
1664
1653
1690
1744
1733
1787
1786
1830
1840
1814
1878
1862
1872
1885
1871
1899
1866
1863
1869
1822
1856
1831
1829
1855
1776
1807
1782
1815
1843
1789
1814
1803
1829
1862
1832
1855
1834
1851
1870
1856
1923
1936
2039
2047
1975
1947
1886
1851
1843
1797
1810
1787
1789
1814
1791
1827
1778
1671
1739
2092
2921
3293
2903
2437
1993
1744
1664
1663
1697
1696
1746
1741
1755
1786
1751
1829
1814
1833
1877
1857
1901
1869
1878
1878
1838
1858
1840
1827
1831
1801
1825
1805
1795
1818
1783
1805
1793
1826
1849
1808
1839
1815
1844
1872
1814
1845
1846
1877
1920
1947
2061
2033
1991
1950
1855
1866
1831
1783
1798
1767
1786
1757
1758
1782
1690
1627
1802
2261
3010
3021
2634
2233
1907
1712
1638
1680
1687
1693
1745
1697
1762
1776
1789
1799
1793
1854
1855
1853
1879
1841
1870
1850
1840
1856
1823
1847
1794
1781
1837
1787
1822
1821
1808
1830
1798
1825
1823
1840
1860
1851
1875
1843
1845
1866
1853
1921
1941
1995
2032
1984
1990
1914
1881
1874
1805
1819
1789
1789
1815
1811
1840
1773
1677
1722
1975
2603
3159
2858
2448
2080
1847
1682
1681
1734
1709
1761
1770
1766
1815
1794
1863
1851
1854
1887
1845
1872
1872
1872
1886
1835
1872
1845
1822
1859
1840
1872
1843
1852
1875
1808
1834
1811
1818
1867
1830
1872
1863
1851
1883
1845
1882
1856
1893
1968
1968
2045
2018
1975
1963
1878
1866
1815
1792
1793
1765
1789
1779
1778
1808
1745
1667
1782
2192
2963
3161
2735
2272
1961
1783
1681
1733
1725
1722
1766
1744
1792
1790
1807
1849
1824
1872
1873
1876
1893
1850
1870
1850
1815
1840
1808
1843
1822
1818
1851
1808
1840
1825
1804
1849
1810
1834
1838
1846
1898
1849
1856
1845
1845
1878
1829
1879
1925
1950
2040
2039
2039
1984
1921
1922
1859
1862
1818
1794
1820
1794
1825
1808
1776
1755
1648
1902
2412
3194
3031
2496
2140
1842
1679
1707
1687
1729
1722
1741
1761
1733
1781
1797
1795
1847
1839
1862
1854
1853
1874
1818
1841
1837
1809
1827
1807
1818
1808
1797
1822
1778
1818
1810
1809
1830
1785
1811
1809
1811
1854
1797
1817
1818
1823
1859
1800
1854
1894
1911
1990
1977
1978
1917
1856
1851
1786
1797
1751
1721
1757
1739
1791
1775
1731
1707
1681
1984
2624
3226
2864
2352
2038
1772
1660
1723
1681
1706
1722
1703
1737
1728
1786
1802
1806
1856
1838
1870
1872
1855
1886
1835
1840
1850
1830
1823
1792
1841
1819
1828
1837
1770
1808
1815
1790
1840
1814
1831
1847
1813
1840
1827
1882
1838
1793
1863
1861
1913
1931
1982
2033
1965
1929
1884
1859
1829
1727
1761
1753
1753
1816
1764
1765
1718
1638
1765
2099
2797
3247
2737
2273
1864
1692
1648
1618
1679
1654
1705
1717
1679
1763
1733
1761
1791
1776
1837
1775
1817
1821
1754
1803
1764
1754
1712
1714
1765
1698
1705
1679
1653
1698
1626
1662
1678
1648
1709
1681
1639
1615
1610
1667
1615
1614
1595
1535
1657
1653
1675
1717
1719
1717
1619
1603
1527
1470
1454
1387
1361
1371
1376
1391
1328
1373
1270
1376
1864
2540
2800
2215
1685
1471
1256
1257
1263
1243
1311
1264
1322
1341
1329
1421
1360
1426
1409
1392
1452
1435
1451
1443
1391
1439
1398
1407
1420
1465
1513
1466
1483
1467
1459
1488
1438
1472
1507
1488
1535
1535
1535
1535
1520
1595
1522
1581
1615
1583
1614
1662
1714
1762
1809
1831
1751
1723
1659
1631
1634
1556
1597
1588
1584
1631
1535
1617
1570
1615
1961
2593
3195
2689
2138
1885
1634
1568
1600
1604
1637
1595
1667
1653
1646
1711
1691
1765
1790
1728
1822
1753
1771
1789
1770
1806
1781
1805
1795
1782
1834
1793
1872
1870
1817
1856
1840
1857
1882
1882
1903
1840
1921
1906
1904
1915
1907
1936
1931
1897
1949
1972
2031
2094
2127
2163
2083
2064
1987
1936
1936
1872
1902
1922
1904
1949
1904
1939
1840
1851
2193
2800
3610
3041
2481
2211
1954
1855
1838
1854
1911
1837
1891
1903
1909
1968
1916
1988
2000
2000
2000
1975
2002
2029
1985
1999
1955
2005
1995
2018
2062
2001
2038
2043
1995
2038
2002
2031
2032
2032
2089
2037
2047
2042
2059
2093
2062
2065
2041
2069
2135
2111
2223
2243
2224
2224
2128
2101
2068
2017
2023
1947
1975
1979
1968
2009
1959
1900
1905
2163
2842
3546
3091
2559
2246
2010
1839
1834
1835
1856
1918
1876
1899
1953
1936
1986
1977
2026
2026
2032
2022
1968
1997
1963
1861
1875
1891
1939
1971
1933
1974
1962
1968
1973
1954
1999
1948
1978
1974
1954
2016
1973
1977
1961
1927
1957
1919
1974
2003
2011
2128
2125
2160
2160
2080
2083
2009
2012
1969
1920
1949
1897
1894
1920
1858
1778
1714
2016
2630
3265
2838
2263
1910
1603
1433
1439
1404
1394
1358
1329
1373
1326
1337
1331
1298
1322
1269
1257
1218
1211
1210
1118
1098
1082
1056
1069
992
1035
1014
962
983
919
919
913
895
918
858
886
878
850
875
832
832
825
816
874
863
910
976
963
977
881
830
761
709
722
658
673
657
644
691
657
647
565
685
1207
1993
2128
1627
1185
926
719
727
754
774
842
830
899
959
981
1072
1053
1107
1149
1165
1216
1195
1237
1262
1248
1294
1285
1328
1338
1348
1418
1417
1442
1455
1456
1510
1511
1567
1579
1615
1674
1639
1684
1695
1683
1734
1725
1802
1841
1882
1993
1959
1959
1904
1841
1838
1781
1787
1765
1744
1786
1760
1803
1791
1712
1653
1808
2355
3252
3187
2614
2137
1829
1622
1535
1569
1493
1426
1213
985
889
782
752
734
698
717
675
690
681
660
688
629
645
624
605
656
646
695
717
720
769
751
770
802
811
863
863
909
934
927
988
967
1009
1086
1123
1211
1289
1301
1274
1229
1231
1154
1153
1145
1109
1153
1134
1168
1189
1207
1181
1008
1171
1729
2663
2847
2287
1776
1372
1160
1182
1147
1158
1172
1119
1130
1041
1004
961
875
845
720
637
545
450
457
397
432
470
487
589
624
722
789
831
941
951
1031
1094
1127
1227
1234
1301
1359
1370
1444
1442
1485
1518
1565
1674
1695
1823
1838
1818
1833
1782
1799
1793
1783
1830
1806
1863
1911
1906
1969
1899
1823
1993
2515
3807
4095
3376
2747
2306
2159
2091
2147
2179
2182
2253
2242
2295
2341
2335
2395
2407
2438
2455
2449
2496
2465
2503
2523
2506
2554
2510
2535
2553
2539
2559
2527
2542
2556
2528
2589
2524
2539
2559
2528
2559
2539
2551
2559
2501
2582
2559
2612
2716
2683
2704
2611
2581
2546
2474
2477
2417
2421
2426
2401
2448
2419
2368
2226
2319
2866
4095
4095
4095
3217
2697
2372
2320
2319
2297
2346
2313
2353
2377
2368
2418
2379
2412
2435
2405
2468
2416
2418
2445
2399
2448
2401
2413
2432
2416
2465
2415
2423
2422
2386
2420
2384
2389
2415
2387
2432
2390
2391
2395
2350
2395
2352
2411
2443
2487
2581
2498
2463
2416
2332
2319
2247
2224
2223
2187
2231
2165
2166
2143
1959
2027
2342
3239
4095
3607
2928
2435
2115
2026
1957
2000
1969
1980
2003
2001
2058
2029
2063
2080
2064
2096
2041
2067
2063
2009
2046
1999
2011
2011
1989
2043
2004
2004
1995
1968
1993
1953
1974
1968
1941
1998
1959
1971
1981
1937
1994
1943
1946
1998
1981
2090
2092
2098
2079
1972
1973
1889
1855
1835
1775
1811
1765
1782
1808
1762
1690
1589
1870
2544
3332
3250
2640
2195
1828
1648
1671
1622
1655
1680
1670
1739
1723
1760
1791
1743
1803
1779
1791
1813
1794
1851
1808
1826
1840
1791
1843
1811
1847
1862
1829
1866
1806
1814
1834
1801
1843
1802
1825
1842
1805
1855
1822
1840
1855
1879
1923
1959
2033
2053
1977
1963
1877
1861
1811
1757
1797
1763
1788
1788
1747
1776
1615
1595
1902
2559
3408
3135
2608
2175
1755
1662
1610
1631
1663
1648
1708
1692
1713
1734
1727
1781
1763
1793
1809
1777
1823
1791
1794
1805
1782
1830
1782
1807
1827
1798
1834
1779
1793
1808
1794
1831
1793
1825
1843
1815
1854
1807
1842
1860
1835
1914
1891
1990
2054
1984
1984
1904
1872
1843
1791
1819
1759
1781
1808
1773
1810
1745
1623
1671
1999
2832
3402
3044
2522
2094
1787
1647
1661
1699
1685
1743
1716
1744
1758
1748
1818
1793
1811
1845
1817
1862
1823
1834
1837
1794
1849
1799
1820
1850
1817
1867
1819
1834
1840
1791
1839
1809
1830
1840
1821
1857
1834
1859
1862
1821
1921
1915
1966
2041
2023
2027
1919
1894
1888
1827
1840
1781
1807
1827
1803
1837
1786
1680
1666
1955
2640
3193
2949
2512
2155
1894
1700
1705
1730
1716
1766
1744
1776
1809
1801
1857
1840
1863
1893
1867
1893
1851
1872
1872
1830
1865
1840
1870
1884
1857
1890
1847
1856
1866
1851
1894
1843
1859
1875
1867
1902
1857
1875
1888
1872
1943
1922
1999
2070
2032
2015
1934
1903
1872
1818
1835
1772
1793
1809
1782
1808
1750
1641
1632
1931
2608
3199
2928
2490
2113
1843
1648
1653
1687
1681
1724
1697
1728
1772
1776
1825
1804
1840
1862
1849
1897
1858
1871
1867
1830
1867
1818
1840
1852
1825
1863
1829
1842
1847
1824
1862
1829
1840
1859
1840
1883
1840
1874
1894
1861
1933
1919
1978
2081
2031
2029
1939
1919
1881
1808
1839
1786
1821
1817
1776
1834
1794
1728
1637
1807
2392
3309
3331
2766
2268
1914
1667
1665
1694
1689
1750
1747
1770
1800
1798
1858
1844
1870
1883
1872
1918
1887
1894
1904
1888
1890
1833
1859
1856
1842
1893
1840
1869
1863
1841
1879
1851
1871
1871
1871
1909
1859
1887
1895
1868
1936
1936
2001
2094
2062
2059
1963
1933
1914
1853
1872
1799
1806
1809
1781
1839
1794
1779
1664
1730
2177
3071
3554
2996
2392
1996
1701
1675
1682
1675
1728
1717
1755
1778
1777
1831
1799
1841
1861
1840
1885
1861
1872
1867
1847
1872
1835
1865
1847
1822
1863
1827
1855
1844
1840
1866
1819
1846
1866
1843
1869
1850
1882
1877
1846
1894
1873
1920
1959
2032
2082
1978
1965
1927
1881
1878
1808
1799
1794
1778
1828
1799
1814
1790
1651
1718
2024
2880
3520
3018
2502
2027
1744
1683
1666
1717
1694
1741
1761
1766
1799
1789
1827
1850
1845
1891
1859
1888
1888
1857
1894
1837
1851
1851
1823
1857
1792
1824
1828
1806
1835
1797
1841
1840
1804
1857
1840
1856
1851
1840
1878
1850
1878
1870
1895
1963
1956
2064
2047
1984
1968
1890
1883
1861
1814
1837
1789
1806
1803
1793
1831
1741
1648
1776
2201
3155
3328
2855
2359
1923
1726
1663
1694
1697
1698
1757
1730
1775
1791
1793
1845
1825
1854
1862
1843
1903
1863
1881
1871
1837
1873
1840
1847
1845
1821
1839
1798
1829
1826
1808
1841
1807
1834
1840
1831
1872
1833
1853
1855
1846
1878
1829
1866
1906
1918
2002
2029
2021
1982
1911
1929
1844
1824
1808
1776
1810
1766
1787
1792
1778
1745
1617
1810
2342
3238
3312
2755
2274
1853
1648
1680
1656
1698
1707
1715
1770
1757
1791
1807
1802
1856
1841
1898
1897
1872
1909
1863
1872
1859
1843
1866
1823
1834
1833
1808
1839
1791
1818
1840
1808
1837
1810
1855
1863
1839
1875
1840
1866
1869
1840
1872
1826
1863
1854
1840
1937
1919
2010
2061
1997
1984
1904
1870
1854
1798
1809
1770
1797
1792
1773
1811
1763
1697
1648
1872
2559
3334
3147
2625
2133
1803
1638
1669
1674
1664
1722
1711
1743
1763
1769
1823
1807
1831
1854
1850
1895
1859
1883
1859
1830
1869
1808
1827
1826
1797
1830
1776
1812
1807
1786
1817
1790
1803
1807
1788
1837
1798
1830
1828
1808
1835
1798
1809
1824
1808
1853
1858
1899
1990
1994
2007
1904
1865
1831
1801
1820
1745
1753
1749
1747
1783
1742
1749
1637
1631
1985
2669
3231
2899
2399
2047
1701
1629
1643
1630
1685
1666
1712
1730
1735
1791
1782
1830
1840
1842
1870
1847
1877
1878
1861
1892
1840
1856
1840
1814
1856
1812
1835
1839
1825
1862
1810
1841
1829
1819
1868
1839
1869
1857
1849
1873
1839
1867
1869
1857
1907
1921
1943
2032
2070
2101
1991
1953
1918
1871
1873
1817
1839
1829
1819
1857
1819
1834
1729
1675
1971
2559
3371
3141
2609
2214
1815
1727
1715
1706
1745
1733
1776
1795
1794
1857
1825
1867
1894
1897
1939
1904
1942
1943
1910
1935
1875
1887
1874
1857
1874
1847
1867
1859
1835
1862
1831
1861
1857
1856
1899
1862
1894
1887
1863
1902
1881
1891
1887
1863
1916
1917
1980
2069
2077
2077
1981
1940
1918
1870
1869
1810
1831
1834
1808
1833
1813
1803
1681
1694
2063
2827
3460
3035
2466
2071
1723
1668
1683
1680
1727
1718
1759
1769
1764
1829
1807
1834
1850
1851
1889
1869
1894
1902
1870
1897
1841
1863
1860
1837
1868
1815
1826
1814
1794
1843
1794
1808
1820
1818
1864
1808
1851
1852
1831
1856
1824
1840
1839
1805
1863
1859
1901
2000
1998
1983
1872
1847
1805
1755
1785
1719
1719
1710
1687
1744
1702
1698
1579
1609
1994
2798
3293
2895
2345
1951
1639
1599
1616
1595
1648
1637
1680
1702
1697
1751
1735
1773
1790
1793
1840
1809
1841
1840
1813
1840
1789
1799
1793
1782
1808
1770
1778
1773
1744
1778
1766
1808
1795
1776
1827
1785
1818
1824
1795
1838
1801
1808
1808
1798
1853
1851
1899
1985
2007
2000
1913
1881
1853
1811
1814
1744
1755
1749
1728
1783
1740
1747
1659
1625
1925
2478
3181
2928
2462
2128
1746
1631
1616
1623
1672
1644
1682
1702
1691
1747
1751
1793
1801
1803
1856
1839
1872
1854
1830
1867
1809
1822
1838
1808
1839
1788
1808
1808
1794
1814
1762
1799
1801
1786
1835
1808
1844
1853
1840
1856
1811
1854
1866
1841
1914
1891
1984
2069
2064
2055
1945
1905
1874
1838
1851
1817
1826
1811
1787
1827
1797
1728
1664
1883
2433
3095
2994
2559
2187
1935
1729
1714
1712
1722
1778
1769
1814
1840
1854
1902
1884
1936
1936
1927
1981
1947
1975
1968
1936
1963
1920
1946
1947
1919
1949
1898
1936
1930
1904
1937
1895
1929
1927
1908
1963
1935
1957
1942
1923
1955
1914
1946
1936
1968
2027
2032
2151
2156
2091
2055
1969
1953
1931
1883
1890
1840
1876
1868
1846
1904
1817
1723
1854
2370
3582
3796
2991
2342
1905
1761
1694
1734
1757
1782
1839
1803
1831
1839
1831
1861
1825
1846
1849
1850
1874
1838
1851
1825
1801
1831
1792
1809
1803
1775
1810
1763
1787
1776
1754
1786
1753
1802
1801
1783
1822
1774
1795
1802
1783
1843
1814
1856
1898
1906
2064
2022
2002
1955
1883
1909
1847
1841
1818
1808
1843
1803
1841
1825
1786
1715
1680
2078
3039
3966
3309
2509
2019
1741
1677
1717
1704
1751
1776
1787
1840
1831
1872
1887
1882
1931
1900
1936
1920
1927
1959
1904
1915
1909
1872
1897
1855
1885
1875
1846
1882
1840
1850
1845
1849
1872
1840
1871
1887
1859
1887
1855
1886
1875
1841
1890
1898
1949
2011
2039
2047
1970
1936
1885
1840
1839
1777
1798
1786
1771
1808
1773
1796
1717
1597
1817
2327
3268
3237
2677
2213
1793
1664
1649
1636
1685
1653
1705
1712
1711
1761
1741
1781
1792
1799
1840
1808
1840
1839
1815
1845
1793
1809
1794
1767
1794
1745
1751
1738
1718
1744
1713
1729
1717
1712
1749
1697
1722
1712
1686
1737
1675
1693
1694
1679
1753
1731
1815
1878
1841
1826
1737
1715
1669
1631
1648
1597
1635
1619
1593
1617
1557
1503
1397
1558
2144
2903
2871
2402
1959
1635
1424
1424
1418
1418
1455
1428
1459
1449
1456
1489
1463
1506
1507
1504
1520
1462
1463
1439
1387
1377
1329
1366
1335
1278
1249
1167
1137
1067
1023
1008
947
930
893
833
813
731
705
655
605
576
477
473
454
445
465
494
507
462
381
331
231
205
142
94
93
33
34
15
0
0
0
0
0
685
1337
1083
634
226
0
0
0
0
0
0
0
0
0
0
0
0
0
0
0
0
39
33
81
83
71
131
106
139
145
132
176
154
176
199
199
251
240
272
300
287
335
313
338
355
341
398
375
452
474
555
674
624
593
559
526
539
473
496
496
499
563
549
603
602
560
511
688
1335
2166
2189
1834
1354
1003
852
850
929
919
970
1015
1040
1107
1095
1151
1182
1198
1264
1237
1276
1295
1293
1337
1317
1341
1344
1344
1392
1360
1387
1365
1328
1350
1295
1325
1327
1307
1321
1288
1313
1303
1265
1286
1232
1232
1215
1205
1275
1242
1303
1374
1328
1302
1163
1103
1002
921
913
876
896
894
886
968
925
912
827
1002
1558
2366
2538
2219
1747
1387
1139
1156
1200
1207
1296
1303
1367
1418
1441
1515
1487
1526
1535
1562
1623
1616
1653
1678
1675
1718
1687
1707
1710
1696
1730
1691
1709
1705
1690
1718
1666
1697
1689
1679
1719
1713
1728
1732
1722
1774
1747
1808
1863
1879
2021
2001
2013
1999
1945
1955
1892
1881
1835
1811
1872
1845
1869
1873
1835
1765
1755
2135
2877
3390
3097
2650
2301
1980
1820
1838
1805
1835
1823
1781
1799
1729
1728
1683
1622
1628
1526
1527
1483
1399
1380
1296
1280
1255
1242
1298
1266
1298
1325
1341
1407
1392
1454
1481
1494
1575
1601
1695
1745
1781
1850
1847
1919
1945
1996
2096
2109
2235
2259
2223
2217
2123
2095
2021
1943
1962
1897
1906
1887
1856
1865
1740
1597
1679
2063
2800
3047
2689
2270
1900
1666
1535
1583
1592
1594
1663
1643
1695
1694
1724
1798
1794
1845
1874
1889
1961
1942
1989
2017
2019
2090
2074
2135
2151
2160
2223
2195
2246
2256
2263
2323
2305
2353
2374
2378
2447
2417
2462
2469
2455
2543
2559
2630
2734
2775
2793
2709
2701
2669
2614
2639
2559
2593
2587
2589
2642
2608
2625
2537
2443
2768
3607
4095
4095
4095
3455
2791
2617
2559
2549
2593
2555
2606
2607
2592
2640
2608
2645
2627
2621
2647
2619
2618
2559
2541
2559
2497
2509
2482
2457
2485
2432
2438
2417
2381
2384
2325
2352
2335
2319
2347
2299
2295
2277
2251
2265
2217
2257
2253
2267
2384
2347
2319
2229
2150
2134
2055
2019
1987
1958
1968
1923
1942
1935
1875
1794
1774
2123
2966
3687
3315
2653
2170
1835
1731
1775
1739
1774
1776
1787
1841
1829
1871
1882
1887
1938
1926
1969
1975
1954
1987
1951
1979
1965
1933
1965
1919
1934
1934
1907
1936
1904
1943
1940
1921
1945
1917
1955
1948
1955
1968
1925
1959
1941
1981
2033
2070
2162
2128
2064
2046
1971
1967
1922
1875
1894
1858
1874
1870
1862
1886
1793
1713
1862
2369
3408
3504
2971
2416
1972
1792
1715
1741
1745
1741
1803
1790
1835
1840
1835
1886
1855
1914
1907
1903
1937
1887
1926
1910
1872
1904
1850
1866
1838
1798
1831
1759
1746
1697
1696
1731
1678
1699
1665
1648
1696
1644
1671
1648
1636
1693
1680
1721
1770
1805
1805
1697
1678
1628
1575
1574
1499
1533
1507
1502
1554
1494
1522
1424
1338
1601
2143
2861
2731
2304
1958
1613
1456
1424
1419
1478
1465
1499
1529
1526
1594
1613
1639
1649
1661
1709
1689
1725
1723
1712
1731
1682
1712
1727
1716
1728
1703
1703
1712
1723
1751
1727
1744
1739
1736
1755
1733
1760
1756
1753
1792
1789
1830
1859
1927
2000
1970
1950
1863
1809
1808
1766
1763
1721
1717
1755
1733
1750
1744
1680
1610
1773
2258
3007
3029
2601
2160
1893
1711
1642
1680
1658
1707
1725
1739
1745
1738
1783
1799
1799
1853
1840
1857
1847
1846
1861
1822
1840
1818
1807
1838
1807
1820
1809
1811
1842
1806
1821
1799
1803
1828
1808
1833
1842
1843
1859
1823
1842
1871
1898
1938
1999
2034
1995
1947
1915
1853
1837
1782
1762
1776
1744
1766
1769
1767
1776
1646
1659
1951
2590
3220
2845
2435
2061
1745
1649
1618
1669
1661
1685
1725
1718
1769
1761
1776
1815
1814
1841
1851
1867
1878
1854
1878
1856
1835
1850
1819
1846
1822
1810
1838
1808
1822
1822
1835
1863
1858
1872
1859
1857
1879
1872
1904
1888
1872
1915
1937
1985
2062
2073
2039
1962
1935
1872
1819
1808
1750
1759
1763
1754
1776
1758
1765
1680
1603
1833
2451
3539
3325
2685
2165
1735
1620
1597
1600
1616
1618
1678
1673
1680
1714
1697
1742
1744
1758
1785
1773
1803
1776
1775
1779
1745
1753
1725
1712
1712
1684
1702
1680
1663
1678
1664
1680
1674
1677
1702
1675
1698
1678
1680
1695
1675
1686
1714
1743
1803
1872
1891
1843
1793
1759
1707
1683
1663
1632
1648
1616
1648
1648
1641
1645
1520
1535
1824
2637
3442
3010
2416
1904
1584
1520
1512
1578
1582
1595
1632
1631
1680
1678
1694
1747
1743
1792
1793
1781
1815
1790
1826
1813
1787
1801
1742
1760
1717
1698
1713
1664
1685
1670
1663
1703
1680
1718
1703
1707
1725
1684
1731
1702
1703
1717
1715
1776
1842
1898
1898
1813
1794
1738
1695
1687
1632
1648
1635
1619
1657
1623
1676
1623
1501
1646
2030
2880
3062
2627
2192
1791
1603
1535
1520
1555
1535
1606
1603
1614
1655
1651
1717
1712
1728
1784
1747
1799
1776
1777
1808
1759
1776
1740
1725
1744
1684
1699
1679
1695
1728
1680
1718
1706
1706
1753
1723
1778
1759
1750
1787
1746
1807
1827
1840
1919
1958
2000
1951
1887
1876
1804
1814
1775
1762
1786
1739
1783
1776
1767
1774
1613
1696
2042
2797
3376
2922
2467
2071
1774
1712
1680
1719
1712
1729
1785
1758
1809
1808
1823
1875
1855
1908
1900
1901
1919
1893
1925
1881
1873
1899
1853
1901
1868
1872
1899
1851
1884
1831
1854
1900
1855
1898
1872
1867
1890
1849
1887
1873
1879
1904
1906
1968
2019
2065
2061
1968
1954
1910
1856
1846
1780
1815
1785
1789
1824
1777
1819
1741
1628
1799
2285
3373
3504
2886
2354
1859
1690
1626
1630
1696
1674
1730
1719
1746
1779
1721
1749
1735
1746
1811
1786
1830
1808
1808
1830
1785
1807
1770
1781
1808
1759
1795
1754
1747
1779
1770
1811
1780
1776
1838
1808
1856
1838
1834
1859
1811
1850
1836
1881
1946
1947
2092
2047
1997
1982
1919
1913
1859
1840
1846
1814
1857
1843
1865
1887
1817
1744
1773
2139
3010
3517
3121
2538
2095
1818
1719
1769
1744
1753
1806
1790
1831
1833
1855
1893
1877
1937
1906
1905
1946
1907
1949
1920
1900
1903
1861
1895
1872
1856
1872
1829
1866
1827
1808
1818
1795
1833
1808
1825
1861
1829
1830
1821
1811
1829
1808
1869
1890
1930
2001
1963
1953
1878
1840
1792
1744
1750
1725
1729
1741
1709
1741
1733
1670
1565
1687
2174
2874
2954
2555
2124
1840
1604
1533
1535
1527
1577
1584
1599
1636
1610
1675
1681
1680
1712
1662
1679
1657
1669
1697
1651
1670
1645
1648
1661
1624
1653
1625
1603
1619
1597
1627
1616
1631
1644
1611
1646
1639
1666
1690
1653
1679
1659
1700
1741
1743
1840
1844
1830
1786
1703
1684
1648
1627
1639
1604
1626
1599
1599
1629
1571
1493
1580
1937
2681
2943
2582
2142
1830
1617
1494
1520
1518
1535
1583
1567
1610
1610
1619
1648
1634
1668
1659
1670
1678
1642
1654
1635
1616
1616
1535
1566
1535
1519
1519
1473
1488
1462
1439
1449
1396
1409
1387
1372
1383
1333
1337
1302
1281
1280
1249
1271
1253
1307
1300
1212
1149
1045
976
908
821
775
704
679
668
585
587
507
340
367
656
1415
1881
1469
990
563
272
115
57
52
0
0
0
0
0
0
0
0
0
0
0
0
0
0
0
0
0
0
0
0
0
0
0
0
0
0
0
0
0
0
0
0
0
0
0
0
0
0
0
0
0
0
0
0
0
0
0
0
0
0
0
0
0
0
0
0
0
0
0
437
481
44
0
0
0
0
0
0
0
0
0
0
0
0
0
0
0
0
0
0
0
0
18
90
171
194
293
341
410
474
480
547
565
585
635
623
662
677
709
768
786
861
886
946
1036
1104
1215
1338
1424
1443
1418
1449
1426
1413
1401
1351
1374
1361
1399
1477
1488
1584
1529
1475
1718
2318
3489
3621
3007
2496
2087
1985
2003
2064
2161
2205
2305
2355
2421
2496
2528
2627
2665
2719
2778
2811
2899
2917
2941
2995
2992
3046
3041
3050
3095
3088
3139
3127
3122
3141
3120
3169
3171
3200
3243
3239
3311
3296
3301
3353
3312
3351
3353
3404
3510
3578
3607
3516
3394
3364
3234
3218
3163
3135
3151
3111
3170
3151
3152
3152
2960
3035
3483
4095
4095
4095
4095
4095
3371
3043
2933
2949
2896
2865
2883
2858
2884
2885
2884
2890
2852
2879
2800
2762
2755
2681
2662
2609
2559
2551
2496
2524
2491
2464
2434
2397
2402
2367
2354
2368
2309
2345
2329
2317
2320
2290
2307
2279
2263
2331
2329
2403
2475
2491
2497
2410
2382
2322
2283
2283
2228
2250
2228
2224
2255
2222
2239
2095
2116
2482
3200
4095
3603
3005
2672
2349
2241
2191
2202
2231
2202
2260
2262
2278
2326
2310
2370
2369
2354
2379
2352
2384
2354
2351
2361
2329
2339
2317
2310
2320
2271
2299
2276
2260
2283
2241
2269
2247
2253
2265
2226
2270
2238
2222
2242
2217
2259
2274
2288
2400
2384
2386
2315
2257
2224
2143
2141
2095
2080
2096
2061
2096
2057
2031
1951
1875
2214
2925
3888
3472
2777
2382
1996
1853
1862
1795
1839
1810
1815
1845
1808
1846
1815
1809
1838
1792
1826
1789
1779
1795
1744
1776
1719
1707
1725
1675
1711
1660
1662
1679
1626
1661
1638
1637
1655
1600
1639
1611
1600
1613
1567
1600
1535
1554
1619
1603
1728
1723
1664
1616
1513
1477
1371
1301
1276
1215
1249
1214
1207
1235
1189
1157
1052
1251
1931
2817
2802
2270
1756
1395
1217
1255
1255
1295
1329
1317
1393
1392
1427
1471
1462
1535
1532
1572
1616
1594
1641
1622
1631
1648
1615
1648
1616
1624
1648
1606
1638
1610
1600
1626
1607
1654
1634
1638
1659
1637
1662
1646
1639
1659
1622
1674
1671
1699
1799
1787
1776
1677
1616
1600
1497
1482
1430
1407
1410
1376
1407
1366
1334
1264
1194
1479
2174
2935
2790
2243
1815
1424
1328
1363
1349
1409
1424
1438
1479
1475
1563
1573
1609
1651
1654
1719
1721
1717
1755
1737
1775
1758
1745
1788
1759
1778
1759
1737
1762
1728
1776
1757
1773
1799
1771
1824
1808
1823
1843
1810
1851
1826
1833
1876
1885
1968
2027
2015
2004
1904
1898
1846
1809
1807
1759
1779
1764
1777
1808
1779
1776
1630
1689
2091
2849
3383
2956
2476
2129
1801
1763
1723
1730
1790
1775
1837
1823
1839
1898
1883
1937
1936
1945
1990
1980
2013
1988
1997
2017
1979
2031
2000
2013
2045
2011
2045
2023
2018
2041
2006
2061
2030
2055
2085
2047
2095
2064
2083
2097
2068
2141
2141
2187
2273
2255
2267
2179
2131
2127
2060
2069
2025
2028
2043
2013
2047
2032
2000
1895
1903
2279
3013
3665
3287
2725
2367
2032
1921
1920
1896
1935
1906
1920
1951
1937
1981
1954
1959
1995
1972
2018
1981
1977
1985
1948
1975
1933
1925
1938
1909
1942
1904
1895
1903
1865
1908
1879
1900
1918
1877
1919
1895
1903
1919
1889
1919
1889
1911
1978
1961
2089
2097
2058
2026
1939
1935
1869
1837
1830
1779
1797
1792
1797
1831
1777
1735
1641
1886
2551
3408
3275
2689
2193
1821
1648
1680
1657
1666
1699
1671
1719
1725
1744
1767
1761
1808
1788
1792
1821
1790
1825
1779
1775
1791
1767
1778
1740
1751
1770
1723
1751
1714
1712
1721
1695
1735
1709
1712
1742
1697
1744
1713
1717
1746
1720
1796
1792
1842
1951
1875
1873
1792
1770
1744
1675
1689
1648
1651
1670
1627
1680
1635
1577
1485
1581
2123
2989
3150
2702
2125
1743
1507
1488
1503
1479
1535
1517
1535
1584
1561
1616
1600
1614
1647
1619
1671
1655
1666
1680
1633
1664
1631
1622
1648
1614
1646
1615
1618
1639
1607
1641
1616
1637
1663
1641
1689
1661
1673
1693
1664
1679
1663
1699
1757
1780
1914
1867
1829
1804
1735
1747
1675
1661
1659
1637
1686
1648
1651
1667
1597
1523
1577
1990
2839
3155
2783
2265
1875
1631
1535
1590
1586
1602
1641
1627
1667
1680
1693
1744
1729
1782
1776
1792
1822
1798
1841
1795
1792
1808
1770
1813
1794
1794
1805
1759
1797
1776
1774
1811
1795
1851
1831
1841
1868
1837
1878
1854
1855
1887
1856
1923
1927
2010
2074
2027
2017
1941
1917
1911
1860
1870
1845
1844
1874
1840
1888
1853
1776
1719
1894
2450
3166
3137
2703
2289
2029
1797
1758
1789
1762
1829
1817
1838
1868
1847
1901
1895
1903
1936
1911
1956
1915
1923
1950
1910
1949
1910
1914
1933
1899
1930
1905
1911
1931
1898
1935
1904
1905
1931
1898
1941
1918
1929
1941
1907
1946
1906
1939
1990
2002
2140
2109
2067
2015
1947
1945
1873
1841
1831
1799
1833
1808
1819
1824
1759
1677
1673
2043
2908
3455
3023
2425
2000
1709
1600
1653
1636
1643
1680
1667
1715
1712
1734
1761
1751
1820
1798
1806
1837
1792
1836
1797
1799
1821
1775
1808
1775
1785
1789
1755
1774
1733
1743
1755
1725
1767
1755
1763
1787
1751
1797
1776
1789
1808
1767
1842
1839
1904
2000
1938
1913
1824
1795
1778
1712
1725
1686
1680
1714
1683
1725
1685
1643
1535
1642
2118
2885
3045
2636
2172
1871
1620
1589
1633
1602
1659
1645
1664
1712
1702
1767
1751
1779
1825
1779
1841
1810
1817
1840
1781
1840
1786
1776
1779
1728
1766
1687
1683
1674
1625
1655
1591
1588
1589
1535
1564
1488
1452
1436
1373
1386
1296
1306
1312
1237
1328
1269
1229
1147
991
934
791
711
639
511
493
384
325
289
163
32
0
80
640
1178
974
415
19
0
0
0
0
0
0
0
0
0
0
0
0
0
0
0
0
0
0
0
0
0
0
0
0
0
0
0
0
0
0
0
0
0
0
0
0
0
0
0
0
0
0
0
0
0
0
0
0
0
0
0
0
0
0
0
0
0
0
0
0
0
0
0
0
0
0
0
0
0
0
0
0
0
0
0
0
0
0
0
0
0
0
0
0
0
0
0
0
0
0
0
0
0
0
0
0
0
327
471
637
839
954
1178
1294
1488
1648
1727
1907
2024
2220
2416
2603
2807
2832
2949
3083
3137
3323
3405
3578
3803
3855
4059
4061
4095
4095
3931
4032
4095
4095
4095
4095
4095
4095
4095
4095
4095
4095
4095
4095
4095
4095
4095
4095
4095
4095
4095
4095
4095
4095
4095
4095
4095
4095
4095
4095
4095
4095
4095
4095
4095
4095
4095
4095
4095
4095
4095
4095
4095
4095
4095
4095
4095
4095
4095
4095
4095
4095
4095
4095
4095
4095
4095
4035
3857
3726
3529
3559
3417
3376
3394
3312
3395
3199
3051
3233
4083
4095
4095
4095
4095
3358
2800
2559
2514
2510
2448
2480
2398
2384
2379
2311
2375
2327
2373
2468
2514
2691
2747
2912
3037
3042
3142
3071
3063
3054
2959
2976
2835
2800
2770
2672
2662
2530
2503
2480
2402
2438
2342
2320
2324
2283
2407
2414
2465
2586
2531
2558
2471
2441
2416
2298
2286
2198
2175
2154
2112
2153
2101
2096
1986
1883
2236
2949
4095
3919
2973
2480
2032
1899
1899
1851
1889
1826
1840
1873
1827
1881
1818
1830
1847
1794
1845
1795
1793
1775
1697
1719
1659
1669
1674
1638
1700
1666
1689
1685
1615
1691
1613
1616
1627
1603
1696
1639
1657
1680
1648
1727
1684
1766
1854
1869
2037
1986
1955
1920
1806
1837
1708
1698
1709
1653
1730
1709
1763
1819
1747
1691
1712
2131
3093
3747
3376
2669
2256
2010
1897
1968
1935
1969
1999
1956
2028
1968
2000
2036
1978
2065
2023
2080
2090
2047
2124
2045
2073
2096
2054
2130
2091
2106
2111
2074
2135
2094
2119
2145
2113
2209
2187
2217
2254
2244
2350
2327
2375
2432
2457
2608
2704
2867
2959
2960
3059
3013
3031
3045
2989
3063
2961
2971
2966
2893
2916
2711
2652
2913
3708
4095
4095
4095
3285
2678
2559
2461
2464
2462
2415
2462
2396
2430
2443
2397
2463
2415
2448
2478
2434
2494
2432
2453
2457
2383
2420
2366
2382
2391
2350
2400
2314
2331
2335
2286
2358
2287
2293
2323
2277
2341
2256
2283
2299
2283
2379
2320
2393
2468
2401
2406
2288
2277
2262
2176
2224
2151
2163
2186
2128
2183
2112
2061
1999
2205
2787
3474
3439
2987
2592
2368
2112
2084
2094
2053
2128
2083
2107
2147
2112
2192
2128
2158
2190
2147
2202
2129
2160
2165
2110
2181
2126
2137
2129
2078
2132
2089
2102
2113
2055
2122
2054
2073
2096
2041
2099
2047
2072
2096
2043
2118
2069
2128
2207
2187
2237
2122
2112
2103
2037
2093
2031
2089
2106
2053
2121
2055
2060
1950
1993
2443
3117
3563
3046
2545
2349
2073
1971
1951
1894
1983
1933
1971
2000
1951
2032
1965
2009
2013
1971
2027
1967
1968
1971
1923
1991
1929
1954
1963
1920
1982
1923
1943
1924
1870
1933
1874
1904
1914
1875
1953
1905
1931
1939
1889
1996
1968
2025
2135
2096
2131
2018
1997
1962
1890
1919
1838
1854
1866
1816
1894
1845
1835
1707
1714
2143
2869
3488
2970
2448
2159
1811
1744
1744
1712
1786
1721
1766
1791
1754
1811
1775
1811
1826
1805
1870
1815
1842
1825
1789
1841
1781
1808
1805
1771
1827
1761
1790
1790
1749
1806
1757
1778
1778
1731
1806
1756
1776
1766
1721
1810
1778
1862
1953
1895
1917
1808
1787
1765
1677
1711
1630
1645
1639
1613
1671
1601
1588
1462
1487
1962
2806
3275
2809
2208
1840
1520
1489
1518
1482
1562
1509
1557
1588
1563
1637
1591
1645
1674
1639
1724
1664
1696
1706
1677
1730
1664
1710
1712
1678
1725
1657
1692
1689
1645
1713
1654
1684
1699
1675
1738
1680
1710
1709
1668
1739
1728
1782
1869
1862
1894
1793
1776
1747
1681
1706
1626
1648
1653
1607
1677
1628
1649
1568
1482
1792
2384
3233
3061
2496
2111
1706
1627
1626
1596
1680
1639
1691
1711
1689
1765
1734
1793
1808
1785
1878
1814
1863
1862
1821
1872
1822
1840
1840
1801
1862
1808
1845
1838
1793
1863
1814
1842
1862
1810
1865
1810
1843
1853
1808
1871
1847
1904
1939
1982
2038
1947
1915
1866
1807
1825
1741
1749
1750
1710
1765
1709
1729
1688
1524
1667
2000
2803
3167
2702
2301
1899
1671
1602
1573
1648
1587
1623
1650
1646
1728
1689
1749
1778
1775
1854
1808
1855
1855
1813
1886
1825
1850
1844
1815
1874
1813
1839
1846
1813
1874
1810
1866
1879
1831
1918
1857
1895
1887
1843
1904
1857
1927
1944
1946
2096
2032
2035
1996
1920
1945
1857
1859
1840
1801
1855
1805
1849
1840
1779
1730
1696
2064
2801
3332
3030
2469
2134
1841
1744
1794
1744
1806
1826
1806
1885
1843
1896
1918
1882
1959
1910
1953
1954
1915
1971
1902
1936
1925
1886
1936
1886
1911
1899
1862
1914
1842
1867
1849
1820
1871
1806
1840
1828
1786
1840
1776
1808
1817
1814
1891
1904
1961
1909
1822
1826
1728
1725
1680
1633
1673
1597
1637
1631
1594
1645
1518
1487
1706
2269
3126
2949
2507
2078
1688
1645
1575
1617
1634
1633
1723
1677
1728
1750
1744
1826
1781
1847
1872
1858
1913
1847
1900
1881
1846
1914
1847
1883
1872
1843
1901
1834
1871
1861
1831
1902
1846
1889
1904
1882
1959
1901
1937
1939
1899
1985
1964
2035
2129
2112
2141
2033
2013
1979
1914
1962
1887
1913
1897
1865
1923
1858
1888
1798
1740
2070
2635
3318
3005
2521
2239
1888
1803
1776
1739
1808
1762
1804
1808
1801
1882
1825
1882
1888
1875
1951
1887
1919
1930
1884
1934
1883
1904
1876
1823
1872
1805
1856
1846
1806
1856
1796
1834
1853
1841
1905
1840
1890
1859
1831
1885
1826
1878
1919
1916
2053
2026
2047
2016
1919
1945
1855
1867
1830
1791
1851
1798
1840
1840
1806
1798
1674
1958
2451
3063
2962
2480
2191
1923
1744
1789
1729
1776
1765
1760
1826
1780
1850
1872
1870
1935
1889
1936
1936
1903
1968
1904
1936
1914
1878
1921
1856
1879
1862
1826
1883
1813
1851
1845
1827
1889
1837
1867
1859
1840
1910
1849
1898
1897
1863
1954
1936
2011
2099
2045
2062
1945
1955
1917
1847
1871
1783
1819
1814
1794
1845
1796
1819
1715
1712
2093
2809
3505
3015
2433
2095
1764
1750
1743
1726
1798
1744
1809
1806
1789
1862
1808
1870
1875
1867
1936
1862
1906
1894
1855
1893
1816
1855
1835
1790
1839
1775
1801
1776
1739
1805
1733
1791
1777
1743
1795
1750
1795
1782
1746
1806
1745
1794
1799
1808
1874
1899
1991
1936
1871
1878
1787
1793
1742
1687
1736
1666
1698
1691
1661
1728
1609
1568
1712
2191
3122
3018
2603
2119
1730
1639
1572
1603
1616
1602
1670
1628
1689
1698
1687
1770
1723
1790
1798
1797
1848
1792
1835
1811
1783
1833
1766
1801
1782
1759
1811
1739
1786
1769
1757
1823
1765
1821
1817
1795
1865
1804
1853
1832
1807
1876
1821
1872
1870
1886
1968
1981
2077
2043
1975
1985
1895
1923
1867
1824
1872
1808
1861
1837
1808
1877
1760
1711
1822
2246
3169
3203
2801
2317
1926
1805
1719
1788
1787
1754
1829
1779
1853
1849
1851
1927
1884
1950
1947
1947
2000
1937
1988
1968
1930
1978
1914
1951
1921
1882
1927
1846
1889
1872
1841
1898
1840
1904
1882
1871
1924
1851
1910
1886
1852
1911
1846
1895
1913
1915
2006
2035
2074
2021
1931
1968
1853
1863
1824
1783
1826
1743
1807
1780
1759
1794
1622
1706
1982
2705
3297
2867
2435
2032
1744
1741
1678
1728
1703
1711
1783
1732
1801
1794
1801
1858
1798
1867
1856
1842
1904
1837
1879
1857
1812
1872
1798
1852
1825
1791
1846
1791
1840
1817
1798
1872
1811
1872
1856
1830
1890
1842
1891
1865
1846
1920
1854
1927
1939
1937
2108
2067
2082
2001
1936
1984
1894
1911
1879
1849
1901
1839
1883
1865
1840
1813
1694
1956
2497
3250
3191
2647
2278
1917
1750
1790
1739
1798
1778
1769
1838
1797
1872
1856
1851
1926
1875
1936
1921
1905
1957
1887
1935
1921
1885
1935
1840
1903
1863
1838
1899
1808
1872
1840
1825
1903
1838
1904
1891
1883
1943
1873
1951
1931
1895
1931
1906
1974
1982
2047
2126
2030
2031
1938
1888
1936
1855
1882
1851
1840
1901
1813
1860
1808
1680
1807
2097
2813
3153
2786
2449
2098
1872
1723
1691
1776
1728
1780
1759
1758
1827
1781
1849
1831
1849
1925
1854
1906
1890
1862
1917
1842
1882
1841
1824
1870
1782
1827
1797
1771
1823
1765
1826
1793
1779
1822
1775
1834
1819
1795
1855
1795
1855
1838
1854
1920
1904
2057
2031
1985
1968
1859
1877
1825
1780
1817
1762
1801
1781
1769
1838
1729
1662
1728
2112
2903
3191
2800
2352
2027
1823
1681
1735
1723
1742
1807
1770
1842
1837
1847
1927
1891
1959
1951
1936
1987
1926
1980
1951
1923
1958
1893
1935
1904
1891
1938
1878
1921
1897
1877
1927
1872
1935
1916
1904
1961
1903
1958
1931
1906
1953
1911
1998
2000
2095
2131
2042
2021
1959
1907
1918
1838
1872
1840
1814
1862
1806
1863
1809
1694
1725
1931
2719
3539
3157
2665
2118
1803
1675
1658
1722
1666
1738
1717
1718
1789
1751
1826
1819
1824
1886
1840
1891
1871
1855
1904
1834
1874
1847
1820
1866
1802
1840
1803
1776
1818
1745
1803
1779
1777
1819
1771
1831
1803
1795
1841
1775
1815
1807
1842
1907
1929
2037
1971
1919
1924
1823
1834
1781
1745
1777
1721
1775
1739
1730
1783
1648
1610
1731
2240
3221
3195
2767
2237
1808
1663
1599
1666
1648
1652
1730
1696
1755
1758
1759
1839
1802
1872
1862
1872
1932
1875
1933
1903
1875
1908
1850
1898
1867
1846
1869
1807
1867
1835
1836
1883
1827
1890
1873
1869
1930
1871
1921
1883
1869
1947
1936
2001
2039
2069
2099
1979
1979
1909
1851
1873
1808
1840
1797
1776
1831
1783
1808
1691
1614
1889
2375
3173
3024
2559
2218
1823
1680
1623
1622
1666
1620
1691
1681
1683
1755
1707
1771
1776
1770
1825
1786
1847
1827
1798
1840
1758
1775
1722
1698
1731
1662
1691
1649
1633
1664
1598
1647
1647
1649
1694
1623
1651
1639
1637
1669
1623
1712
1712
1745
1840
1792
1795
1727
1675
1659
1565
1601
1558
1527
1587
1525
1571
1535
1469
1425
1566
2075
2785
2803
2407
1961
1724
1491
1423
1488
1431
1493
1486
1506
1584
1526
1590
1599
1616
1667
1601
1653
1630
1642
1678
1616
1658
1638
1627
1675
1613
1650
1609
1599
1646
1587
1635
1613
1616
1670
1607
1686
1665
1653
1705
1661
1722
1728
1745
1870
1855
1895
1806
1744
1765
1675
1705
1655
1635
1680
1627
1687
1662
1658
1610
1511
1840
2410
3138
2957
2406
2091
1744
1603
1648
1607
1680
1677
1686
1746
1714
1807
1787
1806
1850
1808
1877
1867
1877
1903
1847
1898
1861
1851
1881
1823
1865
1851
1849
1897
1820
1877
1854
1861
1904
1859
1922
1899
1899
1952
1900
1936
1945
1963
2045
2096
2123
2046
1984
1989
1917
1931
1860
1839
1853
1809
1856
1831
1828
1847
1682
1754
2057
2880
3669
3083
2559
2090
1765
1727
1680
1737
1723
1739
1808
1777
1842
1823
1840
1893
1865
1934
1917
1936
1983
1927
1965
1935
1930
1938
1877
1930
1890
1877
1913
1850
1904
1859
1863
1915
1870
1920
1903
1905
1939
1890
1936
1905
1935
2013
1984
2144
2135
2095
2096
1978
2002
1926
1886
1909
1840
1891
1856
1856
1902
1847
1814
1733
1955
2602
3477
3354
2759
2282
1954
1757
1802
1778
1790
1839
1805
1869
1855
1885
1946
1889
1959
1942
1979
2019
1975
2032
2000
1979
1998
1911
1953
1911
1898
1919
1844
1883
1841
1839
1883
1830
1885
1854
1872
1925
1866
1919
1878
1894
1931
1915
1986
2000
2077
2119
2005
2005
1930
1925
1936
1851
1874
1835
1841
1897
1818
1872
1805
1694
1825
2160
2962
3215
2813
2444
2063
1857
1739
1741
1776
1734
1806
1790
1814
1883
1851
1913
1891
1910
1958
1914
1990
1951
1943
1979
1918
1968
1911
1920
1936
1879
1925
1873
1863
1917
1859
1906
1873
1879
1918
1882
1951
1914
1918
1961
1904
1968
1967
1997
2079
2074
2135
2071
2003
1998
1904
1920
1856
1846
1883
1809
1873
1834
1841
1841
1680
1803
2111
2790
3299
2845
2461
2112
1842
1777
1713
1776
1744
1760
1802
1775
1840
1815
1846
1910
1879
1946
1904
1913
1936
1885
1936
1888
1883
1915
1860
1911
1866
1859
1891
1835
1891
1849
1862
1891
1851
1914
1876
1889
1917
1873
1943
1902
1902
1934
1920
2004
2009
2089
2119
2027
2025
1946
1923
1917
1842
1891
1847
1856
1881
1830
1882
1815
1729
1826
2163
3026
3450
2921
2461
2045
1834
1721
1744
1794
1761
1835
1808
1836
1883
1849
1919
1884
1914
1942
1907
1975
1935
1936
1954
1893
1926
1885
1879
1893
1830
1872
1828
1838
1858
1808
1862
1825
1839
1862
1817
1872
1827
1837
1862
1809
1859
1819
1877
1920
1951
2065
1970
1936
1924
1840
1863
1769
1761
1767
1717
1765
1723
1733
1759
1671
1619
1631
2039
2995
3454
2977
2323
1876
1648
1578
1634
1590
1610
1648
1626
1709
1695
1723
1755
1719
1786
1779
1802
1836
1790
1851
1807
1808
1818
1776
1822
1776
1776
1788
1742
1799
1742
1754
1792
1752
1808
1775
1789
1820
1778
1853
1810
1820
1835
1795
1861
1866
1903
1988
2015
2035
1948
1919
1907
1827
1847
1776
1779
1799
1751
1809
1773
1783
1769
1616
1763
2131
3069
3453
2885
2389
1919
1708
1699
1654
1734
1699
1726
1765
1731
1814
1783
1824
1877
1851
1919
1869
1887
1927
1879
1936
1872
1887
1902
1849
1906
1851
1847
1863
1806
1867
1825
1837
1850
1810
1887
1846
1879
1904
1845
1899
1863
1885
1920
1897
1976
1933
2000
2079
2013
2013
1926
1914
1902
1825
1869
1807
1823
1840
1805
1871
1808
1775
1683
1763
2224
2929
3157
2755
2304
2073
1797
1747
1787
1743
1807
1774
1793
1835
1813
1882
1856
1888
1930
1906
1968
1926
1923
1936
1890
1943
1895
1872
1893
1851
1902
1839
1840
1872
1825
1883
1839
1845
1875
1846
1913
1872
1885
1915
1872
1923
1881
1891
1911
1904
1984
1965
2073
2114
2030
2010
1935
1920
1923
1862
1890
1847
1863
1873
1840
1895
1835
1733
1783
2064
2783
3239
2864
2455
2102
1886
1748
1758
1787
1757
1827
1795
1819
1840
1823
1902
1871
1904
1935
1896
1960
1906
1903
1917
1861
1909
1856
1872
1891
1840
1885
1823
1827
1840
1791
1839
1805
1825
1840
1801
1858
1808
1807
1829
1783
1833
1779
1795
1856
1833
1960
1963
1937
1905
1835
1840
1763
1742
1737
1673
1719
1674
1687
1703
1659
1680
1520
1635
2117
3024
3311
2730
2207
1807
1535
1599
1565
1584
1625
1593
1677
1651
1675
1729
1700
1778
1744
1782
1808
1765
1832
1789
1793
1796
1746
1803
1755
1767
1786
1744
1791
1744
1761
1771
1743
1805
1770
1789
1824
1798
1854
1816
1831
1853
1808
1862
1813
1855
1923
1904
2035
2032
2000
1981
1904
1921
1840
1834
1831
1790
1841
1819
1840
1844
1800
1792
1677
1868
2448
3361
3402
2791
2301
1936
1744
1792
1757
1789
1825
1809
1886
1850
1888
1930
1904
1976
1951
1979
2011
1984
2033
1987
2007
2014
1967
1990
1956
1968
1994
1946
1997
1936
1936
1952
1917
1987
1951
1972
2000
1981
2039
1973
1985
2000
1968
2019
1973
2032
2081
2064
2205
2169
2153
2105
2019
2032
1971
1975
1947
1923
1975
1936
1959
1986
1931
1872
1852
2187
2902
3468
3130
2608
2266
1983
1848
1898
1845
1872
1919
1874
1945
1917
1935
1959
1935
1987
1956
1994
1994
1967
2019
1968
1975
1970
1914
1940
1893
1910
1917
1858
1901
1840
1861
1873
1843
1878
1840
1872
1893
1846
1899
1846
1865
1889
1834
1885
1860
1904
1963
2019
2072
1984
1926
1898
1828
1840
1791
1795
1801
1770
1823
1792
1820
1808
1660
1810
2146
2891
3213
2739
2399
2077
1855
1792
1762
1814
1776
1816
1842
1830
1918
1895
1939
1963
1934
2017
1987
2007
2026
1997
2046
1991
2020
2031
2000
2061
2010
2034
2031
1998
2060
2032
2058
2073
2032
2087
2053
2083
2096
2061
2129
2080
2097
2107
2096
2192
2171
2277
2320
2255
2256
2177
2160
2129
2064
2099
2039
2064
2069
2032
2093
2033
1978
1918
2070
2654
3636
3529
2926
2432
2173
1969
1974
1979
1952
2015
1984
2017
2042
2000
2080
2032
2064
2080
2063
2130
2091
2099
2096
2054
2080
2024
2035
2039
1998
2045
1983
1996
1979
1945
2007
1949
1974
1991
1961
2011
1965
1990
2000
1966
2003
1968
2000
2039
2031
2128
2167
2155
2115
2032
2065
1976
1958
1946
1911
1951
1903
1920
1936
1882
1924
1774
1824
2158
2915
3565
3022
2512
2135
1859
1863
1823
1854
1881
1865
1935
1894
1936
1961
1947
2015
1968
2000
2032
2000
2055
1985
2009
2005
1962
1999
1951
1963
1957
1917
1971
1923
1933
1943
1918
1968
1927
1962
1972
1958
2009
1977
2000
2003
1968
2023
1968
2032
2064
2064
2192
2118
2103
2047
1991
2009
1924
1932
1918
1894
1945
1900
1936
1945
1877
1825
1833
2223
3035
3472
3082
2519
2193
1970
1906
1975
1946
1984
2018
2007
2086
2046
2096
2128
2112
2171
2125
2158
2170
2139
2191
2123
2144
2139
2098
2145
2095
2097
2091
2043
2082
2026
2061
2069
2032
2091
2044
2079
2086
2065
2097
2039
2062
2055
2007
2080
2047
2097
2173
2150
2176
2075
2064
2023
1956
1983
1918
1933
1935
1902
1949
1903
1910
1823
1751
2077
2634
3375
3093
2586
2270
1904
1802
1791
1768
1818
1779
1815
1813
1807
1867
1827
1862
1872
1856
1904
1857
1875
1872
1836
1872
1815
1838
1825
1793
1827
1789
1802
1777
1743
1791
1745
1776
1799
1776
1824
1786
1814
1822
1776
1818
1779
1803
1794
1807
1877
1895
1981
1972
1903
1903
1813
1807
1776
1727
1765
1712
1744
1746
1730
1773
1673
1584
1709
2130
3071
3235
2817
2310
1872
1698
1616
1655
1669
1648
1713
1681
1730
1750
1737
1790
1759
1810
1820
1806
1854
1794
1808
1813
1787
1826
1776
1778
1778
1762
1797
1743
1770
1755
1733
1776
1741
1776
1794
1771
1831
1778
1799
1805
1766
1808
1767
1828
1869
1867
2012
1959
1967
1904
1838
1853
1767
1780
1755
1729
1776
1743
1770
1783
1733
1669
1643
1975
2704
3299
3005
2447
2075
1759
1661
1712
1680
1712
1724
1707
1772
1749
1803
1819
1813
1853
1839
1867
1860
1840
1883
1835
1857
1846
1818
1873
1831
1839
1834
1783
1827
1779
1795
1803
1776
1833
1787
1825
1835
1810
1863
1830
1835
1828
1797
1883
1861
1904
2002
1993
2011
1904
1893
1865
1795
1819
1770
1798
1806
1789
1845
1790
1795
1677
1682
2058
2650
3136
2800
2365
2123
1817
1757
1754
1732
1782
1759
1807
1830
1823
1875
1867
1905
1925
1904
1972
1942
1968
1955
1936
1959
1895
1927
1931
1878
1921
1888
1897
1917
1889
1927
1902
1941
1947
1929
1984
1953
1989
1985
1957
2018
1971
2015
2065
2064
2153
2171
2185
2127
2020
2032
1965
1967
1939
1894
1933
1890
1935
1936
1904
1869
1767
2018
2534
3258
3177
2663
2320
2064
1866
1873
1831
1877
1903
1891
1943
1915
1968
1985
1985
2054
2006
2035
2046
2009
2062
2000
2016
2026
1989
2017
1968
2003
1997
1958
2005
1948
1980
1973
1949
2006
1968
1998
1996
1979
2023
1989
2011
2013
1979
2062
2032
2096
2178
2171
2191
2065
2034
1997
1941
1983
1913
1923
1926
1898
1946
1913
1922
1824
1819
2183
2813
3426
2987
2510
2206
1882
1806
1793
1757
1821
1783
1825
1830
1835
1882
1867
1911
1921
1915
1968
1924
1958
1952
1910
1943
1894
1918
1922
1885
1929
1883
1907
1890
1863
1909
1860
1895
1895
1882
1920
1891
1921
1935
1914
1949
1901
1941
1973
1978
2128
2096
2081
2021
1941
1950
1859
1852
1822
1791
1840
1791
1806
1804
1776
1744
1612
1854
2493
3499
3344
2672
2184
1783
1627
1673
1646
1691
1706
1694
1761
1737
1779
1793
1783
1847
1823
1870
1872
1847
1902
1847
1856
1839
1808
1841
1791
1822
1817
1799
1820
1773
1796
1797
1776
1824
1791
1833
1825
1819
1857
1823
1846
1843
1815
1886
1872
1946
2030
1969
1979
1891
1882
1843
1781
1794
1741
1760
1758
1742
1776
1731
1739
1616
1633
2011
2815
3485
3053
2427
2002
1674
1627
1637
1630
1699
1676
1729
1741
1744
1809
1784
1823
1853
1845
1911
1871
1909
1918
1879
1911
1870
1883
1883
1853
1892
1841
1867
1855
1836
1879
1844
1872
1862
1852
1904
1865
1895
1906
1878
1904
1863
1893
1926
1951
2009
2065
2112
2067
1990
1991
1921
1912
1878
1840
1872
1824
1850
1850
1829
1874
1745
1712
1946
2520
3359
3111
2657
2260
1898
1776
1726
1767
1766
1765
1833
1798
1846
1854
1847
1911
1887
1931
1945
1922
1957
1917
1942
1934
1904
1917
1863
1875
1858
1842
1872
1829
1840
1840
1826
1859
1823
1861
1871
1840
1879
1841
1871
1863
1856
1889
1870
1927
1958
2017
2083
2000
1963
1902
1837
1845
1791
1805
1785
1763
1813
1775
1799
1770
1625
1750
2084
2827
3201
2768
2375
2032
1801
1701
1670
1722
1702
1746
1754
1751
1813
1786
1827
1852
1843
1894
1862
1887
1890
1868
1890
1845
1851
1840
1819
1854
1801
1827
1811
1787
1808
1776
1810
1808
1808
1861
1820
1863
1856
1854
1893
1849
1877
1851
1858
1949
1934
2043
2059
1985
1969
1882
1875
1838
1794
1809
1766
1784
1794
1779
1821
1761
1696
1669
1920
2653
3434
3119
2550
2099
1801
1645
1679
1683
1669
1734
1719
1764
1771
1777
1834
1805
1854
1869
1851
1904
1862
1888
1872
1853
1887
1827
1845
1823
1803
1851
1794
1808
1810
1776
1830
1794
1815
1823
1811
1865
1825
1856
1846
1818
1857
1828
1872
1904
1904
2038
2013
2000
1956
1894
1898
1818
1803
1786
1751
1797
1759
1779
1778
1750
1723
1612
1831
2448
3417
3360
2708
2208
1810
1649
1678
1654
1690
1712
1703
1760
1747
1807
1810
1806
1856
1840
1890
1893
1884
1927
1879
1899
1879
1855
1877
1825
1866
1852
1812
1853
1803
1833
1838
1810
1861
1825
1861
1862
1838
1883
1853
1888
1871
1840
1889
1877
1946
1952
2038
2115
2031
2004
1943
1891
1887
1812
1837
1818
1794
1839
1808
1831
1827
1730
1703
1859
2431
3247
3137
2707
2256
1923
1741
1706
1745
1731
1790
1802
1790
1842
1828
1871
1882
1888
1959
1937
1985
1969
1951
1973
1931
1979
1953
1903
1925
1879
1895
1873
1843
1887
1838
1872
1879
1870
1909
1888
1906
1905
1901
1943
1899
1904
1907
1897
1965
1958
2070
2107
2085
2085
1954
1935
1901
1857
1872
1833
1869
1859
1847
1876
1842
1837
1717
1840
2298
3011
3250
2787
2364
2096
1805
1771
1770
1764
1801
1783
1814
1838
1829
1883
1863
1918
1919
1904
1947
1914
1935
1924
1906
1935
1874
1900
1870
1845
1886
1841
1870
1847
1822
1861
1821
1856
1855
1840
1879
1850
1886
1886
1867
1901
1860
1881
1894
1925
1990
2041
2097
2034
1970
1967
1893
1869
1840
1798
1828
1790
1810
1807
1776
1815
1698
1663
1863
2498
3567
3287
2729
2192
1781
1681
1639
1680
1686
1690
1753
1723
1775
1792
1794
1853
1831
1867
1879
1877
1907
1869
1904
1887
1850
1878
1839
1846
1834
1815
1846
1803
1815
1808
1787
1845
1810
1846
1841
1828
1877
1841
1871
1851
1841
1872
1836
1898
1917
1938
2070
2022
1995
1950
1905
1894
1806
1820
1797
1771
1808
1773
1808
1808
1766
1712
1650
1955
2641
3457
3205
2583
2150
1786
1662
1710
1678
1729
1745
1751
1798
1791
1841
1851
1842
1909
1883
1933
1935
1927
1982
1920
1933
1926
1926
1938
1885
1909
1895
1859
1908
1862
1890
1889
1872
1917
1895
1936
1916
1904
1952
1897
1920
1929
1920
1954
1924
1993
2017
2097
2160
2098
2064
2011
1965
1973
1894
1912
1902
1886
1905
1871
1903
1899
1807
1783
1962
2501
3212
3051
2678
2275
1997
1809
1760
1808
1782
1829
1818
1808
1879
1863
1919
1909
1917
1936
1920
1963
1952
1952
1979
1933
1939
1904
1883
1904
1847
1872
1855
1829
1866
1818
1850
1855
1834
1879
1842
1892
1876
1869
1904
1872
1891
1874
1860
1941
1920
1991
2064
2044
2042
1930
1910
1863
1831
1857
1791
1814
1790
1781
1817
1776
1760
1634
1702
2112
2823
3177
2746
2302
2012
1728
1691
1665
1680
1713
1700
1740
1745
1754
1801
1777
1823
1838
1829
1879
1838
1870
1835
1810
1840
1793
1818
1808
1777
1809
1767
1799
1782
1762
1794
1751
1808
1793
1791
1826
1792
1837
1822
1814
1838
1802
1830
1859
1883
1959
2011
2013
1959
1894
1905
1823
1819
1775
1745
1778
1744
1780
1775
1762
1775
1641
1664
1950
2723
3514
3033
2501
2017
1697
1663
1637
1671
1669
1675
1726
1714
1763
1767
1769
1826
1799
1852
1840
1839
1876
1837
1866
1837
1824
1842
1798
1838
1805
1786
1814
1760
1803
1787
1779
1818
1792
1824
1808
1806
1855
1815
1845
1840
1824
1855
1815
1883
1895
1927
2065
2010
1995
1937
1891
1893
1826
1831
1820
1782
1830
1791
1822
1814
1781
1733
1698
2033
2763
3414
3098
2495
2107
1801
1718
1760
1733
1779
1803
1814
1862
1839
1899
1898
1901
1957
1910
1974
1965
1956
1978
1936
1966
1954
1921
1936
1886
1918
1906
1873
1911
1851
1889
1871
1863
1895
1862
1915
1902
1891
1937
1906
1942
1922
1924
1959
1915
1994
1986
2039
2132
2079
2070
1975
1941
1957
1889
1903
1863
1865
1905
1855
1895
1878
1791
1760
1915
2405
3103
3023
2642
2266
2032
1827
1791
1808
1776
1839
1834
1817
1885
1870
1936
1920
1932
1981
1930
1971
1952
1952
1994
1933
1968
1933
1918
1934
1887
1930
1893
1871
1902
1850
1910
1897
1889
1942
1899
1948
1936
1931
1968
1921
1968
1949
1942
2003
1979
2042
2091
2111
2125
2014
2000
1938
1895
1909
1840
1882
1839
1845
1895
1830
1862
1744
1710
2030
2624
3342
2948
2480
2192
1851
1779
1741
1744
1801
1744
1821
1798
1820
1876
1830
1946
1874
1842
1941
1852
1945
1878
1858
1900
1837
1893
1827
1826
1866
1798
1855
1796
1783
1870
1771
1862
1810
1809
1871
1796
1919
1840
1793
1926
1775
1878
1872
1855
2014
1955
2066
1979
1874
1975
1794
1872
1801
1740
1856
1697
1822
1774
1727
1854
1599
1724
1975
2631
3465
2911
2496
2053
1739
1684
1627
1712
1680
1702
1766
1702
1797
1757
1799
1932
1767
1905
1857
1823
1982
1808
1931
1856
1808
1936
1751
1879
1808
1759
1899
1712
1840
1787
1755
1901
1738
1867
1808
1775
1929
1771
1899
1840
1799
1967
1809
1967
1980
1990
2126
1909
1991
1904
1823
1953
1763
1871
1808
1770
1905
1737
1855
1733
1591
1891
2145
2993
3039
2597
2362
1886
1773
1679
1621
1762
1627
1761
1746
1711
1862
1711
1860
1856
1811
1961
1821
1958
1914
1867
1993
1840
1934
1872
1820
1959
1788
1872
1814
1775
1921
1765
1872
1834
1787
1929
1796
1930
1867
1827
1969
1814
1924
1892
1929
2063
1973
2062
1939
1872
1919
1723
1830
1760
1708
1845
1680
1822
1760
1714
1773
1581
1968
2453
3020
2966
2358
2176
1845
1656
1778
1626
1774
1729
1721
1875
1730
1886
1831
1794
1940
1807
1950
1872
1840
1949
1851
1917
1872
1840
1873
1823
1875
1828
1805
1835
1797
1854
1830
1814
1876
1824
1870
1840
1841
1891
1843
1861
1839
1869
1933
1919
2035
2022
1974
1949
1858
1873
1817
1799
1822
1775
1808
1787
1791
1825
1744
1680
1754
2128
2823
3042
2673
2262
1982
1808
1699
1739
1713
1725
1792
1760
1823
1819
1840
1886
1849
1909
1903
1909
1951
1901
1938
1909
1897
1919
1871
1906
1881
1866
1901
1843
1875
1858
1846
1894
1861
1899
1873
1869
1918
1872
1918
1887
1888
1951
1939
2019
2086
2095
2083
1983
1984
1926
1875
1893
1823
1862
1839
1830
1875
1827
1870
1770
1706
1968
2590
3600
3151
2559
2189
1824
1774
1754
1743
1793
1773
1823
1809
1817
1871
1849
1911
1902
1911
1949
1931
1963
1942
1927
1947
1901
1926
1877
1871
1904
1845
1872
1845
1824
1843
1808
1846
1832
1829
1866
1834
1872
1858
1842
1878
1839
1918
1916
1971
2096
2017
2009
1943
1914
1902
1835
1858
1807
1783
1827
1781
1823
1802
1776
1731
1680
2007
2715
3504
3109
2483
2098
1761
1664
1714
1680
1727
1712
1738
1791
1758
1809
1815
1840
1895
1866
1929
1907
1915
1938
1904
1927
1883
1861
1882
1837
1863
1824
1802
1834
1778
1813
1790
1788
1814
1787
1818
1808
1810
1840
1803
1847
1826
1830
1902
1902
2007
2035
1995
1999
1902
1910
1853
1810
1817
1770
1808
1776
1775
1820
1780
1783
1668
1773
2195
2944
3195
2731
2296
2000
1741
1699
1691
1712
1757
1733
1794
1789
1794
1845
1840
1888
1889
1899
1947
1897
1958
1937
1939
1951
1886
1882
1856
1847
1867
1812
1844
1815
1817
1850
1797
1849
1853
1852
1872
1840
1891
1857
1853
1890
1841
1883
1919
1921
2015
2031
2055
1999
1924
1909
1826
1847
1795
1783
1819
1789
1830
1815
1811
1808
1663
1826
2198
2928
3167
2691
2316
2002
1760
1727
1681
1748
1750
1771
1810
1788
1831
1840
1863
1917
1889
1934
1933
1925
1963
1934
1947
1909
1887
1895
1856
1891
1855
1840
1867
1824
1854
1835
1831
1875
1831
1875
1852
1859
1888
1845
1885
1866
1853
1916
1913
1963
2031
2059
2032
1945
1933
1875
1829
1850
1776
1803
1789
1781
1801
1786
1806
1712
1679
1959
2530
3345
3002
2554
2192
1822
1724
1698
1715
1765
1739
1807
1806
1823
1863
1841
1903
1902
1904
1936
1902
1942
1910
1907
1936
1894
1907
1881
1869
1882
1841
1863
1843
1835
1856
1827
1868
1841
1837
1871
1831
1871
1847
1832
1863
1829
1878
1899
1916
2029
2042
2031
1962
1904
1897
1808
1808
1775
1762
1776
1744
1787
1770
1757
1744
1611
1717
2131
3107
3534
2912
2352
1885
1653
1652
1610
1655
1649
1685
1719
1713
1764
1754
1777
1837
1808
1871
1855
1862
1889
1860
1903
1869
1851
1859
1823
1854
1822
1808
1811
1781
1821
1793
1805
1823
1801
1840
1823
1825
1852
1809
1840
1835
1837
1883
1899
1949
1989
2063
2039
1955
1936
1890
1850
1836
1775
1811
1783
1783
1809
1762
1799
1739
1632
1747
2128
3056
3408
2907
2386
1933
1712
1651
1665
1699
1685
1745
1733
1755
1792
1776
1826
1827
1847
1893
1875
1909
1882
1877
1904
1870
1887
1859
1847
1855
1819
1834
1808
1804
1821
1793
1830
1804
1822
1830
1814
1847
1834
1830
1865
1818
1867
1843
1877
1925
1962
2070
2023
1970
1935
1871
1863
1810
1792
1810
1770
1808
1787
1790
1814
1739
1667
1717
2102
2915
3255
2869
2371
2000
1745
1645
1696
1680
1698
1729
1712
1763
1754
1782
1830
1809
1861
1846
1843
1881
1843
1871
1857
1850
1870
1808
1845
1808
1811
1840
1781
1808
1778
1791
1817
1783
1819
1803
1800
1841
1808
1834
1823
1807
1814
1791
1863
1865
1903
2018
1984
1977
1890
1854
1844
1779
1782
1738
1742
1762
1743
1757
1740
1727
1648
1605
1950
2698
3440
3106
2480
2041
1695
1607
1639
1603
1664
1655
1671
1721
1697
1744
1748
1774
1835
1795
1853
1837
1841
1873
1830
1872
1838
1827
1842
1815
1841
1808
1802
1813
1776
1820
1805
1805
1840
1808
1867
1839
1840
1856
1833
1866
1846
1849
1899
1894
1951
2002
2054
2035
1965
1937
1882
1856
1847
1795
1808
1792
1796
1822
1795
1836
1753
1661
1835
2260
3127
3193
2763
2309
1904
1744
1680
1693
1728
1713
1775
1770
1776
1825
1824
1879
1857
1883
1927
1888
1923
1895
1908
1923
1904
1910
1871
1870
1872
1839
1856
1805
1818
1843
1799
1841
1823
1827
1860
1827
1872
1851
1856
1867
1811
1855
1840
1869
1915
1927
2033
1998
1990
1951
1870
1863
1814
1783
1794
1765
1801
1779
1783
1809
1761
1674
1701
2033
2756
3188
2851
2385
2065
1821
1674
1712
1689
1707
1744
1732
1779
1774
1808
1847
1834
1875
1868
1872
1903
1856
1901
1862
1872
1889
1840
1874
1854
1840
1845
1825
1843
1823
1821
1846
1813
1856
1838
1826
1855
1835
1857
1830
1839
1866
1828
1867
1899
1936
2063
2021
2011
1937
1895
1891
1841
1843
1777
1754
1806
1765
1792
1776
1774
1707
1627
1919
2586
3499
3221
2607
2146
1749
1647
1669
1657
1686
1677
1696
1749
1726
1780
1783
1799
1838
1824
1869
1846
1843
1872
1835
1857
1819
1822
1847
1807
1840
1811
1807
1823
1777
1819
1791
1814
1841
1808
1843
1813
1828
1855
1807
1850
1822
1827
1844
1865
1919
1967
2047
2055
1939
1910
1873
1834
1839
1781
1799
1776
1773
1803
1774
1811
1735
1621
1758
2192
3199
3399
2889
2352
1874
1695
1644
1663
1691
1663
1726
1719
1747
1781
1770
1826
1813
1831
1855
1833
1883
1856
1873
1888
1846
1871
1841
1839
1854
1809
1838
1817
1819
1823
1782
1859
1812
1813
1853
1817
1869
1839
1847
1866
1824
1849
1815
1835
1904
1897
2014
2012
1978
1963
1879
1879
1829
1803
1791
1746
1782
1761
1789
1808
1766
1722
1617
1849
2449
3312
3255
2695
2213
1846
1648
1687
1662
1687
1706
1695
1744
1744
1773
1813
1799
1863
1843
1855
1888
1853
1887
1844
1842
1873
1840
1867
1827
1825
1831
1799
1840
1798
1794
1809
1793
1840
1808
1809
1842
1823
1849
1813
1846
1856
1811
1861
1871
1904
1943
2006
2047
1987
1942
1904
1821
1845
1797
1799
1808
1764
1797
1776
1767
1774
1625
1706
2013
2713
3201
2796
2407
2070
1799
1709
1675
1706
1687
1718
1744
1730
1777
1771
1817
1843
1839
1859
1853
1869
1885
1845
1894
1859
1842
1858
1805
1840
1804
1802
1803
1758
1795
1778
1788
1821
1786
1830
1822
1839
1857
1824
1869
1834
1840
1863
1871
1920
1927
2005
2034
1979
1936
1856
1827
1826
1758
1782
1746
1758
1773
1738
1778
1712
1613
1738
2122
2898
3149
2713
2306
1958
1744
1662
1649
1682
1679
1738
1722
1751
1785
1773
1824
1834
1842
1868
1856
1885
1858
1850
1859
1818
1856
1840
1846
1870
1826
1859
1854
1839
1865
1819
1855
1835
1856
1872
1856
1895
1845
1850
1882
1827
1849
1847
1887
1939
1965
2099
2042
1991
1958
1885
1888
1829
1809
1822
1786
1826
1789
1794
1809
1776
1685
1713
2096
3023
3599
3129
2480
2002
1734
1635
1691
1669
1701
1742
1744
1785
1770
1782
1840
1839
1889
1862
1842
1902
1867
1890
1858
1861
1872
1840
1872
1839
1842
1877
1840
1854
1793
1835
1853
1823
1872
1839
1857
1883
1839
1879
1852
1843
1872
1856
1905
1904
1930
2033
2032
2026
1936
1910
1895
1823
1835
1789
1786
1802
1761
1808
1758
1789
1694
1619
1933
2583
3463
3265
2630
2176
1777
1675
1667
1653
1715
1694
1719
1747
1747
1802
1816
1806
1838
1841
1894
1870
1883
1904
1868
1890
1851
1857
1862
1822
1866
1834
1838
1833
1790
1825
1796
1825
1842
1826
1865
1840
1852
1875
1840
1874
1853
1859
1919
1911
1965
2020
2054
2036
1955
1935
1866
1840
1829
1781
1819
1798
1809
1826
1804
1825
1691
1681
1994
2640
3361
3019
2542
2166
1795
1712
1694
1721
1743
1728
1771
1758
1789
1817
1808
1860
1855
1869
1885
1862
1901
1872
1883
1904
1856
1886
1849
1846
1857
1808
1840
1795
1815
1823
1794
1831
1808
1825
1852
1836
1877
1855
1856
1859
1813
1850
1869
1904
1920
1971
2035
2000
1936
1903
1854
1869
1813
1798
1802
1774
1817
1785
1799
1798
1663
1696
1965
2618
3217
2876
2467
2105
1829
1706
1670
1713
1696
1718
1747
1741
1797
1787
1808
1840
1834
1869
1849
1866
1887
1853
1882
1840
1845
1855
1812
1841
1798
1818
1825
1792
1829
1798
1820
1838
1809
1843
1830
1833
1851
1818
1856
1828
1835
1847
1834
1920
1906
2000
2063
1980
1956
1904
1872
1840
1779
1806
1761
1776
1779
1747
1797
1755
1677
1659
1894
2658
3507
3213
2611
2096
1770
1635
1650
1671
1669
1714
1712
1727
1767
1754
1798
1794
1826
1866
1840
1877
1853
1867
1872
1849
1876
1835
1840
1851
1809
1849
1808
1808
1806
1778
1813
1801
1822
1840
1808
1849
1823
1837
1849
1819
1847
1818
1854
1909
1894
2043
2001
1972
1930
1872
1873
1805
1794
1797
1755
1791
1746
1773
1782
1744
1677
1629
1935
2705
3421
3135
2522
2066
1741
1623
1660
1641
1664
1695
1691
1771
1745
1777
1803
1806
1847
1829
1847
1868
1847
1881
1858
1862
1855
1817
1856
1830
1828
1836
1798
1822
1792
1792
1816
1802
1841
1822
1840
1859
1826
1865
1840
1843
1854
1834
1904
1902
1953
2064
2013
2011
1923
1900
1872
1815
1831
1794
1795
1812
1793
1825
1788
1776
1683
1705
2070
2803
3344
2969
2448
2095
1748
1680
1707
1694
1731
1722
1758
1776
1765
1824
1819
1840
1870
1869
1915
1901
1893
1919
1887
1921
1872
1872
1862
1837
1869
1823
1818
1809
1781
1827
1803
1819
1838
1821
1862
1840
1856
1870
1844
1872
1835
1840
1872
1891
1943
1987
2032
2023
1946
1924
1869
1852
1839
1798
1834
1782
1807
1819
1794
1815
1692
1653
1920
2435
3117
2907
2497
2182
1876
1750
1691
1716
1731
1726
1771
1756
1797
1831
1815
1862
1851
1872
1889
1863
1907
1855
1863
1871
1835
1862
1819
1839
1840
1803
1840
1792
1795
1815
1792
1833
1802
1817
1855
1824
1856
1819
1826
1851
1818
1854
1840
1904
1934
1985
2064
1984
1937
1899
1840
1839
1792
1778
1774
1750
1785
1757
1766
1771
1661
1651
1862
2503
3361
3063
2559
2113
1791
1680
1651
1702
1680
1701
1739
1735
1778
1767
1798
1824
1819
1879
1866
1872
1881
1856
1884
1852
1840
1856
1825
1856
1808
1821
1822
1801
1831
1797
1809
1820
1793
1837
1808
1828
1830
1819
1852
1827
1840
1840
1833
1901
1904
2009
2023
1955
1944
1878
1862
1839
1785
1793
1757
1773
1802
1761
1791
1747
1680
1643
1870
2559
3339
3058
2559
2094
1785
1653
1666
1681
1664
1728
1712
1741
1762
1756
1799
1771
1813
1847
1842
1885
1860
1870
1872
1837
1873
1830
1839
1835
1791
1821
1791
1799
1795
1776
1819
1791
1794
1814
1796
1840
1810
1831
1840
1813
1849
1829
1865
1911
1919
2036
2013
1999
1959
1893
1904
1834
1820
1808
1776
1811
1779
1807
1821
1776
1716
1667
1954
2590
3250
3009
2496
2121
1813
1701
1728
1698
1741
1776
1753
1808
1787
1815
1855
1853
1893
1882
1901
1919
1898
1921
1882
1904
1906
1892
1909
1850
1856
1869
1825
1839
1792
1819
1827
1806
1855
1850
1858
1859
1836
1875
1853
1862
1859
1835
1879
1893
1934
2011
2035
2067
1979
1941
1927
1869
1878
1808
1808
1818
1806
1843
1808
1811
1753
1655
1904
2341
3014
2928
2499
2206
1907
1763
1738
1711
1751
1728
1754
1782
1778
1837
1807
1842
1877
1861
1910
1877
1897
1905
1879
1904
1859
1873
1872
1836
1851
1808
1814
1830
1829
1904
1872
1898
1911
1871
1917
1889
1902
1902
1874
1899
1874
1887
1903
1905
1961
1987
2045
2027
1946
1933
1883
1858
1838
1793
1823
1781
1782
1802
1776
1805
1693
1646
1835
2333
3165
2997
2527
2163
1829
1723
1675
1695
1713
1700
1747
1733
1759
1776
1764
1810
1808
1851
1867
1841
1878
1845
1855
1856
1823
1843
1814
1824
1828
1793
1830
1801
1812
1814
1793
1823
1802
1823
1840
1808
1857
1826
1843
1845
1810
1858
1839
1897
1920
1987
2042
1968
1919
1889
1841
1840
1781
1788
1781
1751
1790
1755
1787
1780
1667
1648
1829
2425
3310
3056
2589
2115
1783
1680
1641
1678
1655
1694
1731
1728
1769
1745
1786
1803
1801
1849
1840
1855
1886
1859
1879
1850
1856
1850
1817
1830
1801
1803
1807
1787
1815
1787
1803
1823
1790
1834
1808
1821
1825
1793
1838
1827
1840
1856
1809
1863
1875
1913
1986
2001
1983
1919
1904
1876
1829
1835
1791
1791
1797
1775
1794
1762
1779
1737
1632
1826
2253
3070
3111
2640
2263
1901
1727
1712
1705
1765
1722
1765
1776
1766
1835
1818
1861
1887
1886
1939
1899
1918
1933
1908
1939
1904
1899
1885
1847
1877
1839
1845
1845
1808
1836
1805
1828
1835
1830
1887
1844
1863
1887
1856
1902
1856
1858
1872
1885
1940
1938
2060
2071
2003
1966
1880
1862
1842
1809
1835
1783
1797
1810
1781
1818
1755
1659
1734
2073
2800
3141
2768
2365
2061
1843
1711
1710
1727
1709
1758
1744
1775
1804
1782
1835
1818
1859
1883
1870
1905
1872
1872
1882
1855
1869
1822
1815
1821
1787
1808
1774
1783
1793
1771
1799
1764
1777
1792
1776
1819
1788
1820
1824
1804
1837
1803
1846
1883
1881
2003
1981
1951
1905
1845
1842
1781
1762
1757
1730
1767
1739
1744
1763
1726
1651
1639
1968
2750
3424
3016
2416
1991
1723
1629
1671
1651
1668
1711
1700
1746
1739
1769
1802
1793
1851
1831
1862
1874
1862
1897
1853
1857
1867
1831
1856
1809
1810
1815
1783
1813
1779
1783
1797
1783
1835
1797
1821
1840
1814
1843
1809
1837
1838
1803
1858
1872
1905
2001
1997
2005
1922
1890
1871
1803
1809
1776
1785
1782
1765
1809
1778
1776
1723
1619
1871
2431
3344
3213
2653
2210
1809
1663
1675
1653
1714
1695
1712
1750
1744
1795
1805
1835
1860
1847
1902
1896
1891
1893
1867
1909
1872
1864
1876
1845
1872
1829
1832
1841
1806
1840
1814
1823
1839
1817
1865
1836
1846
1872
1854
1895
1847
1851
1872
1872
1931
1968
2037
2038
1968
1946
1890
1872
1847
1802
1814
1801
1811
1823
1801
1827
1761
1649
1776
2160
2938
3110
2703
2317
1999
1807
1718
1727
1735
1719
1782
1759
1793
1823
1814
1857
1838
1855
1877
1866
1904
1881
1895
1891
1861
1893
1854
1840
1843
1810
1831
1794
1795
1804
1781
1814
1799
1831
1838
1824
1856
1829
1831
1839
1806
1852
1814
1810
1870
1860
1954
1994
1975
1936
1861
1870
1803
1791
1776
1728
1763
1725
1744
1747
1722
1717
1584
1680
2108
2950
3255
2751
2249
1867
1631
1630
1606
1629
1650
1637
1697
1701
1717
1740
1739
1793
1771
1781
1808
1791
1829
1808
1798
1804
1773
1800
1765
1761
1776
1739
1772
1721
1744
1738
1719
1759
1741
1761
1776
1743
1787
1745
1755
1774
1744
1786
1762
1795
1838
1835
1973
1952
1933
1893
1831
1830
1776
1760
1759
1719
1767
1730
1741
1765
1748
1681
1594
1840
2479
3280
3101
2545
2103
1778
1646
1670
1666
1696
1709
1695
1761
1747
1782
1809
1808
1861
1854
1872
1897
1885
1917
1885
1888
1887
1840
1866
1842
1855
1843
1803
1834
1806
1817
1820
1799
1861
1847
1846
1871
1850
1876
1850
1873
1883
1863
1887
1863
1909
1947
1950
2077
2054
2017
1988
1908
1911
1866
1858
1870
1840
1872
1851
1856
1882
1841
1781
1759
2064
2722
3207
2925
2463
2163
1887
1765
1791
1770
1782
1797
1789
1837
1828
1863
1904
1888
1947
1918
1935
1943
1909
1952
1923
1911
1922
1889
1904
1875
1869
1858
1830
1850
1809
1826
1845
1825
1871
1841
1856
1875
1846
1891
1872
1871
1874
1856
1892
1867
1904
1935
1940
2061
2032
2005
1951
1873
1879
1825
1805
1809
1786
1821
1794
1799
1818
1766
1695
1703
2031
2718
3139
2815
2352
2045
1801
1680
1696
1680
1702
1731
1712
1771
1763
1782
1809
1783
1841
1827
1849
1870
1834
1867
1830
1835
1841
1800
1819
1778
1787
1801
1774
1805
1763
1771
1791
1763
1809
1786
1808
1807
1787
1813
1789
1790
1817
1785
1808
1797
1830
1872
1866
1999
2006
1956
1918
1856
1851
1785
1769
1773
1735
1772
1736
1742
1759
1728
1683
1611
1813
2438
3322
3186
2615
2133
1792
1639
1669
1653
1668
1710
1703
1748
1743
1776
1808
1804
1854
1843
1859
1894
1872
1890
1866
1872
1882
1847
1869
1841
1833
1844
1807
1837
1797
1807
1822
1795
1840
1808
1820
1846
1819
1847
1831
1844
1859
1822
1857
1838
1857
1926
1919
2038
2027
1991
1974
1894
1897
1845
1836
1825
1779
1815
1806
1819
1823
1782
1769
1653
1845
2387
3245
3243
2711
2253
1898
1705
1725
1711
1729
1764
1754
1802
1797
1811
1856
1856
1904
1887
1909
1936
1909
1967
1941
1927
1928
1893
1914
1885
1881
1867
1835
1866
1834
1839
1855
1825
1869
1862
1872
1886
1867
1905
1870
1874
1890
1869
1898
1877
1906
1957
1958
2090
2073
2039
2000
1889
1895
1853
1837
1852
1818
1834
1802
1813
1835
1803
1741
1694
1965
2551
3101
2869
2415
2122
1868
1714
1728
1713
1730
1767
1739
1782
1770
1791
1840
1823
1866
1859
1877
1904
1878
1907
1875
1882
1878
1835
1855
1827
1829
1834
1789
1817
1792
1797
1808
1787
1814
1821
1818
1839
1815
1846
1827
1813
1825
1797
1839
1821
1868
1897
1943
2026
1980
1932
1919
1837
1839
1783
1750
1771
1743
1773
1749
1753
1755
1667
1621
1762
2261
3118
3045
2585
2148
1827
1679
1635
1679
1675
1686
1721
1703
1758
1753
1776
1808
1794
1841
1829
1843
1877
1843
1872
1833
1828
1845
1807
1839
1819
1822
1837
1779
1803
1792
1802
1814
1799
1835
1817
1825
1856
1822
1856
1827
1832
1852
1820
1869
1890
1917
2014
2003
2000
1937
1893
1878
1815
1826
1782
1776
1798
1763
1791
1770
1776
1724
1607
1817
2352
3259
3204
2637
2195
1804
1659
1677
1662
1700
1687
1714
1760
1743
1777
1776
1799
1842
1829
1872
1855
1856
1869
1840
1862
1840
1837
1839
1809
1836
1813
1795
1815
1782
1811
1798
1795
1831
1813
1850
1823
1835
1851
1822
1859
1826
1823
1850
1811
1901
1914
1986
2068
1998
1972
1919
1887
1877
1811
1820
1795
1794
1805
1776
1825
1791
1744
1666
1738
2211
3051
3237
2797
2273
1927
1715
1685
1706
1680
1739
1722
1734
1776
1762
1824
1816
1815
1859
1826
1867
1842
1861
1875
1842
1869
1826
1817
1835
1802
1828
1799
1780
1803
1764
1796
1776
1789
1822
1788
1834
1810
1809
1840
1817
1857
1857
1854
1904
1881
1954
2003
2032
2025
1926
1951
1890
1837
1841
1813
1842
1806
1799
1824
1796
1830
1696
1747
2119
2723
3195
2771
2380
2141
1834
1808
1706
1703
1866
1712
1849
1807
1764
1945
1801
1951
1930
1934
1968
1903
1952
1904
1921
1941
1893
1936
1882
1872
1883
1834
1863
1823
1822
1850
1793
1842
1807
1830
1873
1841
1886
1845
1847
1866
1826
1887
1877
1904
1984
1959
1997
1906
1857
1855
1758
1774
1728
1708
1722
1673
1711
1685
1680
1611
1520
1810
2303
2915
2710
2206
1915
1664
1508
1517
1482
1520
1483
1488
1526
1511
1557
1535
1535
1581
1534
1581
1535
1535
1565
1515
1535
1493
1474
1488
1451
1487
1453
1433
1446
1393
1429
1395
1392
1415
1387
1414
1398
1387
1418
1376
1405
1376
1378
1439
1427
1535
1564
1531
1510
1431
1430
1381
1353
1356
1315
1355
1326
1328
1362
1329
1299
1195
1365
1895
2668
2640
2151
1753
1479
1302
1331
1332
1321
1355
1338
1392
1391
1394
1440
1425
1473
1471
1479
1506
1472
1499
1478
1457
1473
1425
1456
1430
1434
1447
1409
1423
1398
1397
1428
1398
1440
1430
1437
1456
1435
1477
1463
1456
1483
1444
1511
1521
1575
1687
1648
1637
1581
1535
1535
1472
1481
1454
1450
1479
1454
1485
1485
1451
1360
1359
1730
2451
2945
2581
2032
1694
1433
1391
1407
1345
1353
1344
1342
1394
1409
1489
1534
1612
1689
1723
1813
1851
1885
1953
1957
2003
2015
2045
2090
2076
2126
2117
2115
2161
2150
2192
2210
2230
2270
2275
2320
2325
2337
2382
2352
2382
2382
2393
2448
2450
2559
2597
2544
2544
2465
2474
2411
2371
2366
2326
2352
2327
2320
2329
2288
2239
2113
2288
2815
3699
3583
2982
2582
2279
2035
2000
1974
1949
1952
1911
1923
1912
1901
1908
1863
1892
1886
1867
1894
1842
1842
1805
1783
1787
1721
1717
1679
1638
1649
1590
1609
1589
1567
1580
1557
1575
1571
1577
1586
1554
1585
1565
1556
1591
1568
1622
1638
1709
1783
1743
1727
1659
1616
1619
1553
1580
1535
1532
1568
1535
1570
1583
1535
1442
1531
1977
2651
2773
2385
1999
1795
1600
1535
1573
1535
1581
1591
1608
1680
1650
1701
1712
1728
1787
1763
1783
1777
1777
1817
1781
1805
1781
1759
1801
1770
1793
1781
1787
1814
1787
1825
1824
1832
1868
1851
1882
1872
1879
1919
1894
1925
1919
1927
1999
1982
2068
2114
2096
2096
2018
2006
1966
1935
1949
1903
1935
1927
1934
1953
1926
1910
1808
1934
2375
3115
3273
2772
2401
2144
1905
1894
1890
1893
1938
1919
1966
1979
1996
2032
2019
2066
2074
2074
2100
2076
2103
2085
2058
2082
2032
2037
2017
2003
2032
1997
1999
1984
1969
2000
1971
1984
1984
1974
2000
1984
2000
1983
1971
2000
1963
1989
2016
2026
2106
2150
2135
2085
2020
2022
1949
1935
1897
1878
1913
1866
1903
1891
1862
1883
1762
1778
2079
2816
3617
3066
2545
2141
1871
1833
1814
1851
1871
1889
1965
1944
1993
2013
2003
2045
2023
2069
2067
2046
2078
2031
2053
2029
2000
2010
1958
1969
1956
1921
1920
1879
1887
1872
1870
1898
1861
1883
1877
1862
1899
1857
1872
1860
1837
1858
1828
1865
1903
1901
2030
2017
1981
1931
1877
1877
1808
1801
1793
1766
1781
1744
1771
1763
1747
1714
1603
1808
2390
3294
3190
2604
2139
1778
1628
1651
1635
1667
1667
1679
1728
1729
1774
1775
1787
1840
1827
1876
1881
1861
1898
1867
1869
1860
1840
1856
1819
1843
1830
1800
1810
1767
1793
1798
1787
1836
1798
1829
1829
1808
1837
1822
1839
1840
1840
1877
1871
1913
1946
2035
2073
2001
1961
1910
1856
1856
1823
1835
1815
1794
1837
1829
1842
1827
1724
1740
2005
2659
3216
2875
2482
2135
1855
1735
1719
1773
1749
1782
1787
1791
1845
1841
1869
1888
1893
1939
1927
1936
1938
1936
1959
1900
1902
1888
1873
1887
1842
1850
1838
1805
1840
1808
1846
1856
1836
1872
1868
1885
1894
1883
1895
1871
1891
1882
1871
1937
1935
2000
2070
2046
2031
1947
1926
1901
1859
1847
1824
1840
1844
1823
1850
1820
1808
1693
1796
2233
2960
3215
2736
2300
2021
1765
1726
1744
1728
1767
1756
1799
1829
1836
1869
1854
1894
1903
1894
1938
1916
1919
1918
1897
1905
1869
1889
1873
1859
1886
1837
1853
1851
1843
1869
1845
1855
1857
1846
1877
1853
1872
1869
1858
1873
1838
1842
1882
1907
1954
2027
2042
1986
1919
1905
1840
1808
1791
1757
1778
1744
1770
1761
1759
1773
1666
1633
1887
2559
3511
3142
2554
2070
1701
1630
1601
1632
1653
1651
1709
1695
1726
1741
1739
1789
1781
1816
1826
1823
1850
1823
1837
1823
1808
1826
1783
1791
1781
1765
1780
1740
1747
1759
1739
1773
1749
1781
1776
1776
1802
1778
1786
1782
1763
1791
1792
1838
1872
1936
2005
1943
1906
1878
1827
1822
1755
1745
1751
1730
1755
1738
1744
1750
1676
1605
1733
2262
3195
3227
2743
2214
1825
1649
1616
1664
1650
1691
1718
1713
1755
1746
1765
1802
1808
1844
1824
1857
1875
1853
1904
1861
1872
1871
1825
1850
1821
1825
1823
1790
1814
1781
1793
1807
1793
1837
1811
1815
1826
1814
1840
1823
1853
1845
1840
1913
1910
1986
2026
1984
1974
1894
1856
1842
1800
1810
1778
1779
1797
1782
1808
1782
1716
1662
1881
2482
3136
2931
2509
2145
1871
1692
1683
1691
1680
1754
1737
1766
1798
1778
1821
1831
1863
1875
1859
1904
1870
1874
1889
1856
1881
1839
1839
1855
1837
1856
1840
1845
1837
1808
1842
1811
1821
1845
1831
1860
1839
1856
1863
1847
1883
1846
1905
1936
1972
2078
2042
2003
1946
1887
1891
1841
1825
1810
1802
1841
1810
1824
1829
1767
1687
1822
2271
3024
3151
2715
2304
2021
1791
1713
1751
1731
1769
1785
1779
1831
1818
1846
1872
1870
1904
1889
1902
1915
1882
1898
1865
1872
1867
1851
1875
1847
1857
1867
1830
1854
1814
1831
1840
1822
1852
1833
1845
1853
1835
1867
1829
1846
1859
1875
1931
1936
2047
2046
1967
1936
1872
1849
1814
1778
1789
1762
1764
1765
1743
1777
1737
1647
1663
1953
2795
3549
3104
2490
1998
1702
1616
1631
1649
1648
1689
1681
1715
1738
1731
1785
1778
1808
1824
1815
1846
1833
1831
1834
1801
1815
1793
1797
1808
1770
1798
1751
1744
1759
1741
1778
1753
1776
1794
1776
1806
1782
1789
1803
1780
1798
1776
1839
1879
1932
2017
1953
1909
1882
1824
1819
1756
1740
1749
1718
1761
1739
1744
1766
1698
1623
1706
2151
3066
3309
2858
2294
1881
1675
1611
1651
1653
1680
1710
1692
1749
1748
1770
1801
1803
1854
1849
1859
1885
1854
1874
1855
1854
1859
1815
1840
1804
1805
1815
1797
1814
1785
1797
1812
1800
1840
1819
1825
1847
1830
1863
1838
1845
1858
1847
1883
1919
1939
2023
2034
2038
1983
1945
1916
1851
1845
1819
1827
1840
1808
1834
1808
1814
1776
1662
1871
2320
3129
3183
2704
2341
1957
1760
1726
1719
1761
1759
1780
1807
1805
1850
1839
1859
1904
1897
1936
1909
1920
1904
1895
1930
1897
1887
1903
1871
1891
1847
1853
1843
1821
1855
1833
1831
1859
1851
1877
1863
1869
1877
1858
1894
1875
1872
1876
1847
1879
1875
1910
1939
1953
2073
2034
1997
1954
1883
1889
1841
1824
1840
1808
1839
1810
1811
1835
1766
1682
1808
2230
2967
3071
2701
2288
1999
1791
1705
1733
1734
1743
1776
1772
1806
1806
1831
1857
1843
1890
1872
1875
1906
1872
1891
1854
1857
1869
1841
1855
1830
1821
1828
1787
1813
1793
1808
1821
1790
1829
1829
1827
1855
1827
1858
1829
1825
1847
1820
1858
1824
1818
1850
1867
1910
1953
2029
2011
1926
1904
1853
1822
1808
1758
1767
1745
1746
1765
1728
1761
1709
1607
1693
2085
3002
3335
2836
2321
1873
1677
1619
1627
1654
1650
1712
1713
1723
1758
1745
1797
1802
1822
1849
1840
1872
1849
1847
1873
1837
1850
1811
1809
1823
1787
1805
1774
1779
1786
1759
1792
1774
1785
1817
1795
1827
1806
1814
1824
1798
1835
1808
1808
1831
1808
1841
1849
1885
1924
2000
2015
1953
1905
1884
1838
1840
1799
1782
1783
1758
1790
1775
1789
1797
1681
1649
1848
2464
3342
3138
2638
2146
1791
1682
1650
1700
1680
1703
1745
1741
1783
1785
1799
1845
1842
1889
1883
1899
1915
1892
1914
1885
1881
1888
1846
1866
1853
1840
1859
1840
1936
1854
1789
1810
1789
1837
1827
1840
1872
1835
1855
1833
1849
1843
1814
1862
1839
1849
1909
1893
2002
2039
2018
1979
1900
1894
1850
1834
1821
1799
1826
1808
1809
1825
1808
1775
1651
1831
2342
3118
3152
2686
2265
1938
1721
1740
1723
1717
1757
1749
1806
1804
1813
1859
1856
1899
1891
1916
1944
1925
1951
1936
1927
1934
1893
1929
1907
1892
1886
1842
1856
1827
1826
1842
1824
1869
1842
1841
1881
1831
1878
1857
1856
1873
1842
1936
1838
1809
1979
1851
2074
2058
1968
2058
1846
1927
1851
1781
1919
1735
1863
1808
1735
1876
1685
1723
1686
1921
2660
2978
2826
2375
2031
1915
1620
1725
1680
1655
1717
1659
1756
1725
1733
1797
1751
1806
1789
1793
1840
1762
1815
1762
1757
1769
1726
1747
1699
1697
1728
1683
1701
1668
1663
1677
1651
1687
1676
1675
1687
1666
1695
1671
1659
1674
1648
1700
1701
1725
1789
1803
1858
1812
1759
1749
1650
1654
1615
1592
1623
1579
1604
1579
1573
1575
1408
1533
1899
2559
2832
2371
2032
1776
1563
1521
1478
1535
1503
1513
1566
1526
1583
1563
1570
1616
1580
1625
1619
1611
1635
1590
1613
1585
1567
1600
1531
1557
1535
1530
1565
1505
1535
1535
1533
1583
1554
1599
1588
1582
1631
1589
1626
1617
1600
1639
1635
1695
1714
1793
1825
1763
1745
1698
1638
1637
1583
1586
1580
1573
1607
1559
1610
1580
1454
1495
1780
2582
3213
2725
2223
1829
1589
1504
1491
1527
1518
1572
1587
1584
1628
1615
1670
1679
1694
1741
1730
1775
1754
1741
1777
1744
1752
1738
1727
1744
1703
1742
1703
1685
1714
1693
1734
1727
1715
1748
1728
1773
1769
1744
1779
1745
1779
1794
1815
1883
1940
1983
1931
1875
1879
1817
1807
1769
1744
1758
1725
1755
1741
1749
1775
1651
1621
1831
2426
3333
3090
2588
2147
1808
1715
1680
1737
1712
1721
1775
1745
1804
1809
1808
1866
1841
1890
1902
1904
1934
1905
1927
1903
1888
1909
1873
1899
1881
1865
1886
1854
1885
1862
1861
1910
1875
1904
1904
1904
1953
1920
1949
1936
1920
2007
2000
2071
2144
2133
2129
2054
2027
1997
1950
1949
1904
1936
1920
1891
1937
1904
1924
1793
1845
2233
2922
3387
2926
2487
2238
1947
1875
1866
1855
1905
1870
1904
1917
1933
1968
1947
2000
2007
2017
2064
2017
2043
2024
2014
2029
1987
2006
1991
1967
1984
1940
1969
1943
1936
1961
1918
1953
1937
1934
1971
1931
1969
1975
1951
1964
1958
2015
2039
2103
2132
2064
2025
1952
1936
1923
1863
1867
1846
1838
1867
1829
1859
1815
1673
1766
2103
2880
3370
2860
2434
2090
1837
1771
1758
1792
1775
1806
1813
1813
1856
1847
1880
1887
1885
1938
1915
1936
1926
1917
1945
1909
1923
1905
1881
1907
1861
1886
1872
1846
1872
1849
1875
1877
1872
1910
1872
1901
1882
1872
1905
1890
1952
1970
2034
2115
2042
2021
1961
1918
1903
1831
1840
1814
1797
1830
1809
1820
1814
1712
1659
1835
2418
3306
3136
2626
2192
1859
1706
1683
1721
1692
1721
1737
1735
1791
1765
1805
1825
1829
1872
1851
1879
1885
1867
1895
1854
1862
1840
1821
1842
1808
1818
1813
1795
1821
1794
1811
1820
1799
1843
1802
1838
1839
1823
1845
1837
1887
1920
1962
2068
2011
1989
1940
1904
1894
1822
1813
1798
1770
1792
1755
1776
1776
1729
1645
1747
2209
3046
3121
2672
2210
1883
1699
1679
1690
1671
1697
1718
1718
1757
1759
1776
1781
1787
1840
1850
1869
1869
1857
1865
1847
1846
1840
1833
1842
1795
1805
1793
1775
1789
1775
1779
1793
1793
1827
1794
1819
1824
1795
1802
1791
1841
1872
1911
1981
1949
1911
1849
1821
1823
1749
1729
1731
1725
1744
1715
1739
1732
1644
1611
1840
2384
3011
2806
2417
2099
1871
1712
1663
1696
1691
1713
1732
1746
1786
1786
1810
1842
1830
1879
1869
1871
1866
1861
1892
1861
1877
1872
1861
1868
1841
1853
1841
1817
1833
1837
1871
1851
1838
1870
1857
1875
1887
1891
1919
1894
1927
1968
2023
2071
2039
2003
1953
1886
1886
1845
1826
1823
1819
1840
1829
1840
1808
1702
1746
2054
2673
3184
2815
2384
2087
1860
1759
1738
1757
1765
1781
1797
1811
1840
1835
1870
1879
1898
1918
1902
1923
1929
1904
1910
1898
1902
1882
1849
1845
1840
1856
1856
1824
1834
1830
1850
1843
1840
1867
1861
1876
1873
1857
1871
1881
1921
1961
2021
2060
2013
1971
1931
1873
1856
1817
1815
1798
1788
1808
1803
1807
1779
1665
1764
2119
2838
3280
2746
2314
2011
1786
1737
1717
1735
1737
1763
1776
1785
1821
1819
1842
1853
1859
1893
1883
1894
1888
1878
1889
1855
1859
1861
1851
1857
1843
1846
1835
1811
1829
1827
1841
1845
1845
1864
1858
1866
1863
1861
1883
1920
1958
2006
2086
2096
2027
1996
1947
1907
1870
1835
1815
1819
1807
1822
1825
1833
1783
1674
1793
2218
3217
3571
2811
2293
1909
1744
1717
1712
1737
1737
1759
1778
1785
1808
1809
1836
1853
1869
1903
1887
1892
1895
1881
1901
1890
1885
1861
1839
1840
1834
1829
1818
1807
1808
1796
1813
1823
1815
1840
1815
1839
1843
1830
1840
1871
1893
1946
2032
2000
1952
1909
1893
1842
1810
1767
1757
1751
1744
1765
1750
1765
1706
1606
1743
2267
3355
3376
2704
2178
1791
1663
1661
1649
1670
1674
1690
1709
1712
1747
1766
1790
1798
1805
1843
1847
1861
1854
1843
1861
1840
1837
1816
1813
1820
1795
1805
1790
1766
1779
1785
1798
1787
1793
1811
1806
1814
1815
1810
1818
1834
1874
1904
2003
2000
1941
1905
1874
1841
1807
1762
1748
1753
1744
1744
1739
1747
1719
1594
1655
2023
2880
3355
2841
2306
1920
1698
1659
1650
1655
1648
1659
1683
1693
1703
1726
1727
1754
1763
1777
1779
1789
1793
1760
1767
1739
1727
1730
1706
1702
1684
1670
1662
1641
1635
1619
1631
1619
1616
1613
1610
1601
1585
1563
1583
1570
1575
1621
1614
1680
1711
1665
1616
1564
1533
1477
1431
1397
1375
1372
1349
1330
1327
1296
1207
1155
1418
1998
2610
2358
1895
1578
1285
1136
1120
1101
1119
1111
1104
1134
1130
1136
1160
1155
1158
1149
1165
1178
1155
1147
1124
1131
1131
1100
1089
1073
1088
1081
1067
1063
1042
1041
1052
1062
1073
1077
1088
1102
1097
1113
1105
1127
1136
1151
1200
1235
1312
1355
1339
1296
1243
1205
1190
1154
1142
1136
1150
1152
1150
1178
1154
1031
1136
1488
2212
2545
2167
1749
1473
1265
1179
1177
1200
1218
1253
1264
1290
1314
1333
1386
1393
1419
1449
1451
1477
1472
1503
1523
1519
1553
1553
1580
1610
1607
1653
1648
1665
1690
1710
1744
1754
1786
1814
1839
1867
1875
1902
1917
1907
1936
1951
1990
2023
2101
2113
2064
2015
1984
1931
1904
1869
1853
1859
1839
1872
1861
1867
1834
1721
1831
2269
3296
3711
3083
2544
2149
1950
1918
1935
1952
1967
1985
2015
2023
2044
2062
2078
2096
2089
2112
2111
2111
2127
2103
2109
2081
2090
2107
2081
2098
2088
2090
2080
2042
2069
2064
2063
2076
2069
2099
2112
2128
2145
2141
2161
2151
2157
2196
2231
2274
2366
2352
2311
2233
2202
2151
2115
2083
2047
2058
2023
2015
2010
1985
1954
1815
1936
2381
3312
3555
2970
2466
2082
1847
1827
1808
1832
1840
1847
1881
1881
1910
1936
1941
1967
1969
1975
1988
1983
2011
1983
1974
1968
1954
1968
1935
1938
1950
1934
1936
1906
1917
1937
1936
1947
1936
1950
1959
1941
1957
1948
1949
1962
1947
2001
2033
2070
2167
2138
2118
2036
2014
1987
1914
1910
1867
1872
1889
1856
1893
1867
1801
1726
1872
2411
3248
3223
2741
2282
1967
1765
1744
1748
1733
1774
1762
1778
1803
1781
1836
1837
1842
1881
1862
1893
1878
1879
1890
1861
1885
1856
1846
1858
1840
1873
1849
1835
1844
1810
1845
1840
1856
1862
1843
1883
1850
1851
1870
1834
1870
1859
1897
1939
1991
2055
2014
1946
1906
1857
1872
1827
1798
1803
1774
1818
1797
1787
1776
1632
1767
2141
2835
3109
2635
2288
2021
1798
1733
1706
1744
1748
1776
1815
1808
1861
1856
1889
1919
1903
1936
1917
1923
1954
1907
1941
1921
1923
1953
1917
1949
1924
1927
1947
1904
1946
1909
1904
1948
1933
1973
1962
1967
1985
1957
1987
1955
1974
2059
2037
2128
2150
2131
2112
2037
2031
1967
1937
1943
1900
1924
1922
1929
1947
1885
1795
1844
2229
2954
3328
2896
2453
2183
1966
1840
1869
1840
1858
1892
1872
1921
1939
1962
1984
1966
2000
2007
2001
2028
2002
2029
1978
1964
1994
1959
1983
1961
1958
1970
1941
1952
1933
1927
1965
1937
1968
1946
1942
1973
1936
1972
1957
1938
1984
1995
2044
2103
2119
2117
2030
2010
1955
1913
1897
1856
1881
1857
1846
1878
1851
1840
1713
1781
2198
2976
3442
2912
2416
2095
1795
1761
1745
1746
1784
1769
1814
1808
1815
1867
1853
1899
1886
1911
1922
1902
1920
1902
1891
1904
1874
1887
1863
1857
1887
1840
1855
1830
1827
1839
1811
1844
1826
1831
1855
1826
1855
1841
1825
1843
1845
1913
1925
2022
2039
1953
1923
1873
1834
1826
1761
1777
1750
1745
1778
1738
1773
1713
1583
1698
2110
2998
3227
2766
2288
1875
1675
1623
1632
1653
1630
1675
1685
1699
1744
1728
1779
1776
1799
1828
1808
1849
1823
1805
1823
1786
1809
1791
1791
1806
1767
1782
1771
1758
1788
1742
1773
1759
1765
1798
1777
1808
1798
1794
1822
1794
1847
1867
1895
2002
1965
1951
1882
1842
1843
1774
1773
1747
1737
1757
1727
1749
1742
1675
1603
1698
2194
3046
3179
2717
2215
1872
1669
1627
1666
1645
1666
1689
1697
1761
1751
1785
1793
1821
1870
1867
1905
1888
1875
1908
1873
1889
1872
1863
1872
1835
1845
1838
1796
1822
1796
1836
1841
1840
1855
1839
1873
1861
1857
1889
1847
1872
1907
1926
1990
2032
2064
2007
1942
1922
1860
1855
1825
1807
1837
1807
1843
1835
1819
1783
1657
1869
2320
3086
3161
2662
2304
1993
1764
1736
1710
1749
1761
1770
1808
1808
1853
1863
1859
1905
1883
1923
1923
1907
1934
1905
1921
1906
1890
1903
1867
1886
1857
1839
1865
1823
1840
1834
1827
1867
1846
1865
1857
1851
1875
1850
1866
1867
1899
1935
1954
2057
2032
1975
1940
1871
1861
1815
1790
1786
1759
1774
1773
1771
1780
1710
1618
1779
2289
3237
3237
2734
2256
1855
1679
1616
1631
1648
1648
1691
1695
1742
1761
1769
1815
1799
1838
1850
1843
1873
1851
1859
1838
1825
1834
1797
1830
1821
1806
1825
1787
1812
1799
1796
1826
1797
1829
1827
1809
1841
1808
1830
1835
1814
1866
1872
1923
2020
2021
2003
1920
1893
1851
1808
1817
1765
1776
1776
1763
1808
1776
1762
1645
1679
2087
2925
3441
2992
2416
2000
1709
1650
1664
1665
1700
1699
1729
1773
1761
1806
1807
1840
1866
1856
1902
1904
1899
1902
1879
1882
1853
1862
1857
1838
1861
1833
1835
1839
1821
1842
1823
1829
1847
1849
1872
1855
1854
1872
1857
1884
1861
1919
1953
2000
2087
2018
1987
1936
1889
1871
1840
1825
1808
1792
1825
1808
1813
1814
1712
1683
1909
2512
3278
3058
2598
2180
1851
1702
1683
1710
1707
1727
1747
1759
1786
1789
1825
1854
1865
1885
1888
1909
1906
1903
1917
1895
1891
1874
1854
1850
1823
1823
1819
1806
1826
1809
1819
1825
1824
1843
1842
1855
1856
1853
1871
1859
1873
1904
1926
1995
2035
2032
2000
1907
1899
1858
1835
1808
1773
1778
1776
1788
1790
1766
1705
1637
1884
2490
3233
3037
2546
2174
1850
1684
1693
1686
1712
1717
1729
1773
1771
1797
1821
1830
1868
1867
1878
1875
1872
1897
1879
1873
1872
1847
1851
1840
1841
1837
1803
1815
1809
1808
1811
1804
1839
1828
1839
1853
1827
1859
1839
1840
1838
1859
1913
1945
2031
2013
1957
1920
1872
1840
1809
1773
1781
1759
1771
1770
1771
1789
1702
1611
1762
2214
3109
3184
2728
2258
1875
1685
1639
1666
1677
1680
1716
1724
1745
1772
1777
1808
1811
1845
1857
1845
1872
1855
1857
1841
1823
1834
1808
1807
1798
1781
1797
1777
1790
1776
1771
1791
1792
1807
1819
1808
1827
1819
1821
1830
1806
1819
1839
1875
1927
1999
2002
1954
1909
1875
1831
1808
1770
1770
1767
1759
1778
1763
1770
1724
1634
1809
2243
3054
3121
2672
2261
1888
1700
1682
1693
1722
1712
1725
1744
1747
1808
1812
1840
1871
1875
1905
1903
1914
1905
1887
1903
1878
1873
1867
1841
1842
1814
1803
1806
1805
1819
1808
1823
1825
1822
1841
1835
1850
1850
1845
1872
1856
1866
1902
1930
2011
2042
2011
1984
1917
1911
1857
1837
1808
1796
1810
1805
1806
1809
1776
1692
1673
1959
2621
3271
2987
2485
2112
1818
1698
1712
1712
1727
1744
1749
1794
1797
1819
1839
1845
1877
1887
1901
1910
1907
1932
1901
1891
1883
1858
1861
1838
1835
1824
1823
