ecg_value
2027
2027
2027
2027
2027
2027
2027
2027
2027
2027
2027
2027
2027
2027
2027
2027
2027
2027
2027
2027
2027
2027
2027
2027
2027
2027
2027
2027
2027
2027
2027
2027
2027
2027
2027
2027
2027
2027
2027
2027
2027
2027
2027
2027
2027
2027
2027
2027
2027
2027
2027
2027
2027
2027
2027
2027
2027
2027
2027
2027
2027
2027
2027
2027
2027
2027
2027
2027
2027
2027
2027
2027
2027
2027
2027
2027
2027
2027
2027
2027
2027
2027
2027
2027
2027
2027
2027
2027
2027
2027
2027
2027
2027
2027
2027
2027
2027
2027
2027
2027
2027
2027
2027
2027
2027
2027
2027
2027
2027
2027
2027
2027
2027
2027
2027
2027
2027
2027
2027
2027
2027
2027
2027
2027
2027
2027
2027
2027
2027
2027
2027
2027
2027
2027
2027
2027
2027
2027
2027
2027
2027
2027
1627
1646
1624
1680
1691
1712
1738
1714
1751
1729
1734
1761
1738
1758
1755
1739
1766
1745
1826
1840
1850
1886
1838
1857
1843
1811
1828
1779
1794
1803
1813
1830
1780
1826
1802
1807
1866
1838
1898
1955
1965
1974
1872
1829
1744
1712
1705
1642
1678
1648
1642
1659
1622
1625
1453
1609
2359
3266
2635
1527
1168
1086
1264
1532
1535
1557
1595
1573
1639
1633
1651
1697
1677
1718
1703
1712
1731
1694
1725
1697
1724
1756
1749
1814
1809
1823
1817
1763
1805
1754
1746
1779
1743
1792
1770
1767
1789
1749
1784
1751
1791
1856
1815
1890
1904
1922
1900
1803
1778
1697
1664
1664
1625
1648
1620
1631
1661
1616
1561
1503
1968
2992
3120
1974
1372
1179
1289
1521
1625
1606
1625
1666
1648
1713
1713
1759
1793
1770
1835
1805
1808
1834
1793
1834
1815
1854
1917
1910
1968
1921
1925
1932
1885
1911
1881
1874
1901
1862
1903
1872
1883
1901
1869
1911
1871
1879
1934
1922
1963
1977
2020
2032
1936
1904
1830
1821
1812
1773
1806
1749
1776
1792
1758
1733
1600
1823
2631
3379
2505
1676
1446
1377
1585
1793
1787
1809
1852
1863
1924
1915
1950
1963
1938
1995
1991
2000
2005
1969
2019
2011
2026
2078
2081
2141
2121
2139
2149
2097
2096
2053
2083
2123
2086
2123
2096
2096
2101
2079
2113
2073
2082
2096
2101
2155
2159
2199
2231
2167
2130
2026
2005
1971
1897
1936
1873
1879
1888
1872
1888
1737
1783
2264
3211
3281
2144
1623
1461
1344
1629
1780
1807
1820
1813
1870
1870
1906
1907
1886
1921
1883
1914
1904
1851
1893
1882
1899
1920
1923
1979
1973
1986
1987
1939
1985
1936
1919
1920
1895
1941
1902
1919
1930
1885
1921
1870
1867
1890
1909
1968
1939
1999
2032
1991
1946
1840
1795
1743
1679
1719
1674
1685
1679
1653
1696
1600
1513
1801
2614
3431
2393
1457
1187
1088
1375
1554
1603
1616
1598
1655
1634
1683
1697
1693
1729
1696
1733
1728
1697
1728
1689
1712
1729
1712
1792
1791
1829
1833
1802
1815
1765
1771
1757
1727
1759
1730
1771
1776
1751
1790
1735
1748
1742
1727
1810
1786
1851
1870
1856
1855
1757
1710
1646
1590
1584
1535
1570
1535
1530
1584
1535
1471
1423
1776
2722
3184
2093
1340
1099
1135
1387
1513
1523
1523
1555
1535
1614
1600
1602
1677
1664
1709
1711
1689
1724
1681
1711
1712
1710
1769
1760
1801
1819
1797
1810
1756
1775
1751
1740
1776
1751
1776
1777
1776
1821
1786
1791
1776
1745
1777
1776
1849
1856
1854
1936
1919
1924
1854
1790
1776
1712
1727
1707
1680
1723
1680
1715
1711
1639
1584
1803
2672
3316
2302
1585
1329
1278
1527
1662
1708
1675
1728
1751
1761
1811
1785
1837
1851
1843
1898
1852
1898
1895
1882
1920
1913
1975
1991
2005
2059
2026
2054
2029
2003
2044
2007
2039
2054
2038
2095
2064
2096
2081
2064
2096
2071
2107
2099
2119
2183
2158
2223
2241
2234
2204
2099
2066
2018
1987
1995
1950
1968
1950
1947
1983
1874
1823
2042
2761
3699
2699
1884
1589
1437
1591
1793
1867
1867
1872
1931
1917
1946
1951
1949
1989
1962
2002
1969
1973
2000
1955
1998
2000
2000
2059
2057
2107
2079
2064
2076
2006
2037
2017
2000
2014
1972
2006
2000
1993
2005
1961
1971
1971
1959
1998
1983
2042
2046
2079
2132
2093
2058
1938
1871
1867
1783
1804
1749
1735
1764
1723
1754
1711
1587
1859
2554
3435
2585
1585
1315
1158
1326
1571
1635
1664
1629
1693
1696
1701
1762
1729
1763
1761
1744
1770
1737
1771
1738
1735
1781
1767
1821
1834
1844
1855
1818
1843
1820
1790
1807
1770
1808
1791
1777
1813
1765
1810
1797
1782
1801
1757
1795
1810
1826
1859
1875
1931
1886
1795
1751
1647
1664
1616
1593
1600
1535
1591
1563
1535
1523
1377
1652
2398
3222
2405
1371
1091
992
1232
1475
1457
1495
1492
1505
1567
1535
1591
1584
1591
1635
1615
1649
1628
1639
1655
1619
1670
1669
1701
1760
1739
1776
1740
1729
1747
1695
1712
1715
1731
1758
1712
1766
1739
1739
1770
1739
1766
1747
1740
1788
1786
1843
1851
1885
1925
1872
1855
1766
1723
1728
1664
1695
1651
1664
1695
1659
1695
1622
1532
1829
2614
3375
2367
1581
1360
1241
1525
1664
1689
1710
1698
1748
1744
1762
1810
1797
1846
1835
1854
1872
1835
1895
1856
1863
1907
1882
1947
1954
1966
1990
1947
1957
1919
1917
1936
1906
1964
1942
1953
1985
1966
1985
1968
1967
1999
1981
2026
2026
2064
2105
2124
2184
2181
2151
2109
2007
2015
1962
1968
1971
1929
1965
1942
1961
1949
1802
1947
2484
3570
3139
2043
1703
1505
1535
1808
1877
1920
1914
1934
1955
1948
2000
1999
1994
2023
2000
2046
2000
2001
2017
1993
2035
2029
2059
2098
2083
2122
2111
2093
2087
2031
2063
2019
2016
2031
1998
2031
2011
2017
2013
1987
2026
1984
1994
2032
2023
2090
2103
2144
2142
2042
2006
1903
1878
1863
1808
1838
1783
1786
1808
1775
1758
1601
1791
2480
3365
2790
1743
1387
1259
1250
1582
1669
1686
1706
1680
1731
1723
1758
1773
1745
1791
1760
1747
1761
1719
1759
1755
1761
1795
1785
1855
1831
1851
1870
1819
1840
1791
1792
1808
1780
1815
1791
1806
1823
1791
1839
1797
1799
1808
1792
1872
1856
1872
1938
1936
1939
1851
1777
1731
1685
1694
1633
1633
1641
1607
1648
1616
1580
1487
1671
2439
3286
2550
1527
1147
1072
1226
1501
1567
1508
1564
1563
1595
1617
1606
1664
1648
1663
1680
1649
1699
1659
1669
1675
1648
1712
1701
1734
1769
1739
1771
1719
1712
1712
1685
1724
1678
1697
1717
1685
1725
1706
1717
1731
1693
1730
1693
1746
1781
1759
1850
1853
1872
1845
1738
1726
1660
1647
1635
1594
1623
1589
1613
1627
1595
1535
1491
1933
2896
3166
2042
1350
1169
1225
1487
1622
1599
1634
1655
1657
1713
1693
1739
1758
1741
1799
1778
1801
1826
1812
1855
1821
1838
1872
1862
1932
1910
1945
1950
1909
1922
1889
1899
1913
1895
1943
1911
1930
1947
1919
1956
1904
1919
1930
1904
1959
1963
1989
2032
2039
2100
2046
1996
1929
1855
1878
1818
1840
1843
1806
1839
1802
1819
1777
1667
1968
2765
3437
2400
1633
1454
1344
1618
1770
1763
1829
1805
1838
1868
1872
1931
1914
1948
1969
1962
2009
1994
2012
2015
2019
2064
2032
2090
2128
2110
2155
2118
2137
2115
2085
2114
2074
2099
2110
2096
2122
2095
2107
2096
2070
2110
2064
2081
2115
2129
2154
2157
2214
2235
2160
2132
2027
2003
1983
1940
1951
1907
1921
1926
1891
1934
1785
1829
2274
3198
3303
2173
1647
1478
1377
1667
1805
1840
1840
1854
1904
1874
1905
1936
1925
1971
1929
1933
1949
1918
1938
1917
1943
1960
1954
2018
2003
2035
2043
2014
2017
1966
1995
1974
1939
1971
1931
1966
1963
1942
1968
1931
1947
1940
1918
1963
1954
1980
2032
2027
2069
1977
1919
1841
1779
1776
1697
1715
1713
1670
1694
1651
1676
1535
1559
2105
3002
3071
1875
1267
1142
1108
1413
1535
1522
1582
1566
1604
1600
1593
1647
1617
1639
1647
1626
1660
1616
1643
1647
1627
1680
1677
1727
1745
1739
1779
1728
1734
1725
1694
1716
1675
1703
1712
1693
1743
1693
1709
1702
1677
1705
1668
1730
1746
1726
1821
1799
1808
1744
1653
1616
1518
1527
1504
1465
1488
1434
1455
1451
1426
1360
1343
1854
2815
2925
1773
1099
956
1043
1294
1425
1376
1407
1431
1442
1487
1475
1521
1518
1535
1584
1534
1579
1585
1564
1601
1563
1605
1628
1644
1709
1682
1732
1710
1685
1699
1646
1689
1682
1661
1712
1685
1725
1728
1712
1739
1709
1731
1708
1727
1811
1795
1840
1871
1867
1910
1821
1777
1728
1695
1687
1664
1686
1654
1649
1698
1642
1663
1530
1626
2326
3303
2787
1749
1367
1248
1408
1675
1676
1664
1731
1698
1763
1759
1763
1817
1793
1842
1866
1861
1897
1872
1906
1889
1893
1954
1923
1987
1995
1983
2036
1982
1984
1971
1948
1975
1952
1995
1984
1995
2027
1965
2015
2009
1984
2022
1987
2032
2080
2084
2120
2140
2204
2173
2115
2093
1990
2010
1975
1953
1999
1947
1957
1975
1969
1966
1812
1994
2641
3726
2994
1936
1675
1507
1626
1918
1923
1959
1969
1959
1999
1998
2060
2038
2035
2091
2032
2103
2073
2059
2103
2064
2101
2119
2125
2163
2159
2194
2176
2170
2176
2096
2151
2131
2098
2133
2103
2128
2129
2111
2130
2095
2126
2108
2110
2165
2132
2179
2224
2246
2274
2198
2143
2064
1996
1984
1936
1959
1921
1903
1938
1898
1935
1781
1833
2343
3291
3283
2128
1600
1459
1352
1631
1777
1791
1820
1803
1853
1840
1853
1904
1859
1905
1873
1866
1904
1844
1885
1872
1869
1922
1890
1949
1945
1943
1987
1952
1961
1929
1904
1923
1874
1914
1904
1895
1893
1871
1907
1886
1874
1898
1851
1902
1918
1921
1968
1968
2033
1999
1927
1872
1766
1778
1713
1698
1695
1658
1693
1655
1653
1664
1483
1648
2238
3218
2903
1695
1277
1087
1229
1523
1535
1584
1584
1594
1648
1616
1663
1659
1666
1700
1663
1708
1687
1664
1695
1661
1711
1687
1712
1772
1748
1811
1786
1782
1791
1727
1759
1738
1733
1771
1731
1786
1776
1772
1803
1767
1799
1770
1774
1786
1744
1828
1833
1845
1919
1903
1943
1847
1776
1755
1682
1712
1674
1653
1682
1654
1686
1656
1658
1584
1620
2254
3267
2898
1795
1327
1201
1330
1601
1671
1622
1684
1693
1706
1738
1728
1776
1781
1800
1840
1808
1856
1835
1848
1865
1838
1883
1876
1921
1954
1933
1982
1933
1922
1930
1891
1923
1909
1920
1940
1913
1974
1938
1939
1962
1917
1967
1925
1916
1929
1905
1991
1984
2003
2059
2071
2083
1985
1935
1902
1840
1841
1809
1818
1812
1791
1813
1792
1775
1693
1791
2475
3390
2655
1731
1421
1340
1511
1715
1765
1744
1806
1805
1822
1861
1853
1897
1894
1905
1933
1905
1950
1933
1938
1966
1950
1993
2004
2033
2081
2059
2096
2053
2047
2039
2003
2035
2012
2027
2043
2000
2047
2023
2011
2021
1981
2019
1993
2000
2030
2033
2079
2081
2128
2181
2142
2099
1993
1936
1915
1872
1890
1861
1858
1861
1837
1870
1787
1715
1965
2696
3533
2601
1712
1489
1312
1462
1707
1795
1811
1790
1840
1823
1841
1882
1863
1909
1891
1902
1910
1873
1913
1878
1887
1920
1919
1977
1967
1999
2029
1989
2011
1968
1968
1975
1923
1957
1937
1951
1965
1927
1958
1936
1949
1961
1919
1943
1911
1947
1997
1960
2037
2045
2077
2028
1902
1878
1810
1776
1771
1728
1747
1712
1729
1741
1687
1616
1622
2106
3071
3181
2001
1344
1168
1191
1443
1643
1616
1638
1681
1661
1719
1709
1723
1760
1735
1769
1742
1757
1758
1728
1760
1746
1773
1810
1815
1875
1858
1878
1890
1845
1859
1810
1811
1834
1795
1848
1819
1846
1852
1819
1861
1828
1825
1837
1797
1847
1852
1882
1911
1932
1994
1945
1893
1815
1730
1735
1680
1694
1686
1643
1680
1638
1663
1642
1497
1694
2342
3344
2739
1587
1252
1098
1296
1564
1571
1626
1597
1621
1648
1633
1689
1658
1689
1712
1679
1728
1710
1719
1725
1689
1734
1712
1747
1799
1791
1840
1800
1812
1814
1764
1782
1747
1765
1776
1750
1806
1767
1775
1783
1767
1809
1768
1778
1796
1794
1867
1841
1893
1936
1914
1929
1814
1754
1730
1684
1696
1664
1671
1680
1648
1682
1663
1585
1535
1883
2838
3280
2161
1455
1220
1255
1499
1619
1625
1607
1674
1655
1685
1718
1711
1771
1744
1766
1797
1765
1808
1769
1791
1820
1805
1858
1847
1901
1919
1904
1925
1879
1879
1885
1841
1875
1855
1882
1877
1847
1889
1867
1883
1877
1841
1876
1842
1890
1927
1902
1975
1967
2013
1996
1898
1872
1804
1797
1776
1754
1786
1734
1753
1775
1754
1746
1631
1899
2736
3362
2414
1647
1456
1361
1585
1776
1770
1809
1849
1824
1875
1878
1907
1923
1937
1983
1951
1968
1971
1939
1993
1983
2005
2038
2038
2119
2101
2125
2114
2089
2098
2039
2064
2071
2032
2064
2030
2046
2047
2026
2054
2025
2030
2032
2027
2091
2047
2109
2160
2159
2175
2087
2019
1957
1907
1904
1856
1867
1856
1840
1876
1839
1815
1696
1851
2559
3402
2711
1807
1493
1377
1372
1665
1776
1762
1815
1795
1835
1875
1849
1883
1863
1873
1899
1883
1899
1861
1890
1894
1889
1939
1922
1981
2001
1998
2032
1970
1969
1957
1932
1956
1933
1937
1938
1918
1958
1921
1936
1929
1899
1917
1899
1953
1981
1968
2064
2039
2065
1988
1889
1859
1786
1772
1756
1712
1738
1699
1705
1711
1685
1589
1599
2109
3054
3109
1945
1334
1179
1178
1447
1630
1587
1621
1642
1626
1682
1669
1707
1715
1711
1744
1701
1735
1735
1695
1744
1710
1745
1776
1775
1840
1820
1851
1839
1809
1829
1766
1789
1781
1764
1813
1772
1792
1807
1783
1819
1769
1797
1791
1778
1858
1835
1866
1921
1925
1942
1839
1782
1724
1669
1679
1627
1651
1631
1594
1635
1600
1616
1501
1535
2133
3128
2999
1772
1243
1135
1229
1526
1589
1565
1614
1584
1625
1635
1651
1699
1672
1723
1728
1712
1751
1715
1733
1746
1720
1773
1760
1822
1839
1838
1888
1839
1840
1830
1787
1818
1778
1808
1818
1808
1852
1808
1820
1834
1805
1843
1796
1818
1822
1841
1904
1872
1937
1962
1953
1951
1839
1805
1761
1717
1749
1697
1714
1712
1693
1744
1685
1639
1598
1937
2928
3241
2141
1493
1280
1328
1565
1686
1681
1669
1721
1690
1735
1749
1760
1808
1785
1819
1823
1802
1851
1811
1853
1855
1838
1899
1885
1931
1951
1936
1969
1919
1929
1905
1887
1936
1889
1911
1917
1905
1951
1908
1925
1940
1908
1939
1910
1930
1936
1955
2029
1997
2063
2102
2093
2087
1969
1947
1915
1870
1898
1859
1886
1880
1850
1905
1856
1782
1843
2325
3378
3061
2032
1615
1431
1473
1723
1839
1841
1841
1890
1861
1906
1910
1906
1957
1925
1958
1964
1939
1974
1937
1965
1970
1961
2015
2000
2047
2075
2043
2079
2022
2032
2015
1995
2021
1971
1998
1985
1971
2029
1984
1995
2002
1979
2009
1959
1965
1981
1998
2053
2036
2112
2130
2096
2053
1932
1909
1869
1813
1844
1808
1822
1817
1808
1840
1747
1680
1909
2613
3439
2550
1701
1426
1266
1391
1631
1745
1731
1734
1781
1766
1813
1819
1824
1845
1808
1850
1844
1823
1851
1822
1861
1865
1854
1907
1895
1962
1963
1933
1971
1904
1919
1915
1878
1920
1883
1897
1899
1889
1920
1885
1906
1901
1875
1907
1854
1871
1872
1907
1953
1927
2021
2026
1994
1950
1834
1808
1776
1728
1725
1680
1695
1692
1663
1697
1638
1563
1734
2375
3373
2724
1616
1230
1077
1276
1513
1611
1605
1611
1669
1648
1687
1687
1692
1731
1707
1739
1741
1715
1744
1700
1742
1729
1731
1786
1767
1820
1839
1835
1861
1799
1821
1791
1778
1810
1767
1807
1810
1790
1840
1795
1822
1808
1776
1810
1766
1787
1791
1816
1879
1830
1909
1931
1899
1874
1751
1733
1686
1640
1655
1616
1642
1621
1615
1643
1609
1527
1563
2031
3042
3103
1901
1279
1097
1223
1479
1595
1589
1590
1633
1599
1657
1680
1677
1733
1693
1742
1744
1735
1776
1728
1771
1762
1741
1788
1781
1838
1845
1839
1891
1826
1830
1811
1802
1839
1794
1831
1822
1806
1857
1823
1850
1843
1827
1871
1815
1842
1827
1797
1821
1786
1856
1884
1887
1946
1933
1999
1956
1855
1843
1776
1784
1761
1744
1771
1729
1752
1744
1739
1719
1616
1918
2730
3249
2272
1520
1354
1295
1535
1719
1684
1719
1719
1733
1786
1766
1808
1813
1818
1865
1832
1874
1872
1851
1888
1857
1904
1903
1903
1968
1936
1981
1967
1951
1980
1921
1936
1925
1904
1943
1918
1963
1950
1942
1973
1936
1964
1954
1941
1981
1933
1945
1941
1931
1993
2001
2066
2081
2096
2176
2107
2063
2007
1958
1963
1902
1925
1916
1903
1923
1885
1923
1875
1811
2043
2695
3461
2559
1759
1585
1403
1583
1802
1845
1866
1846
1895
1904
1909
1953
1922
1951
1962
1938
1975
1955
1968
1945
1955
1986
1958
2010
2022
2005
2070
2017
2032
2034
1984
1975
1952
1963
1954
1953
1984
1946
1973
1973
1941
1999
1947
1961
1954
1936
1947
1942
2000
1994
2026
2114
2081
2097
2026
1925
1917
1847
1841
1823
1805
1802
1779
1819
1798
1775
1715
1847
2519
3424
2795
1831
1429
1334
1345
1616
1763
1738
1787
1778
1790
1854
1820
1860
1843
1837
1892
1861
1872
1871
1846
1865
1836
1888
1885
1902
1964
1920
1964
1968
1933
1953
1906
1902
1913
1893
1919
1894
1923
1902
1895
1937
1873
1908
1887
1860
1903
1844
1877
1935
1921
1949
1990
2036
1999
1939
1872
1762
1771
1728
1669
1709
1658
1675
1678
1670
1692
1564
1667
2163
3110
3115
1783
1250
1092
1136
1495
1587
1606
1623
1613
1658
1671
1691
1698
1699
1736
1701
1750
1733
1709
1759
1730
1744
1747
1744
1789
1792
1839
1830
1836
1859
1802
1827
1799
1767
1819
1786
1794
1808
1803
1826
1792
1824
1792
1783
1808
1747
1792
1790
1810
1866
1851
1921
1946
1887
1840
1748
1729
1680
1643
1659
1606
1634
1632
1617
1657
1584
1517
1680
2343
3375
2688
1617
1220
1085
1342
1527
1589
1586
1597
1634
1602
1649
1665
1674
1715
1689
1729
1735
1718
1767
1744
1776
1761
1751
1801
1781
1857
1859
1839
1877
1823
1840
1821
1802
1827
1793
1834
1835
1821
1847
1808
1845
1843
1810
1846
1801
1830
1818
1792
1856
1856
1908
1914
1923
1984
1934
1895
1837
1771
1790
1728
1742
1727
1707
1741
1701
1731
1712
1596
1744
2314
3315
2749
1722
1442
1253
1423
1637
1664
1712
1688
1730
1738
1739
1798
1776
1819
1824
1823
1866
1839
1863
1866
1854
1895
1872
1918
1926
1948
1988
1951
1972
1954
1925
1953
1912
1937
1936
1935
1975
1935
1969
1961
1957
1993
1951
1983
1973
1955
1989
1959
2019
2046
2037
2128
2128
2167
2122
2032
2015
1936
1947
1923
1903
1932
1899
1907
1904
1895
1870
1821
2186
3039
3359
2337
1674
1534
1421
1630
1853
1834
1872
1870
1883
1929
1904
1951
1959
1939
1975
1961
1996
1971
1959
2000
1968
1999
1999
1994
2054
2037
2075
2067
2039
2065
2003
2009
1997
1970
1995
1963
1994
1975
1956
1998
1946
1981
1955
1931
1963
1904
1947
1965
1967
2015
2015
2079
2017
1927
1886
1799
1786
1743
1712
1737
1687
1711
1699
1677
1653
1524
1789
2482
3221
2506
1527
1277
1120
1173
1478
1535
1577
1559
1574
1615
1589
1630
1622
1623
1655
1613
1626
1618
1596
1625
1593
1618
1613
1607
1680
1670
1712
1692
1662
1679
1626
1652
1622
1593
1621
1585
1614
1600
1589
1617
1587
1614
1589
1581
1594
1535
1594
1607
1616
1653
1664
1725
1695
1602
1554
1455
1449
1404
1363
1390
1342
1361
1362
1335
1358
1205
1347
1911
2832
2655
1413
912
771
854
1199
1254
1286
1282
1297
1335
1302
1360
1373
1373
1408
1371
1423
1415
1388
1430
1386
1424
1422
1419
1491
1473
1535
1535
1535
1575
1524
1535
1521
1504
1535
1516
1566
1566
1565
1603
1583
1625
1609
1593
1621
1584
1617
1649
1685
1736
1718
1789
1803
1755
1706
1616
1634
1597
1535
1587
1533
1567
1571
1555
1609
1521
1472
1680
2416
3344
2446
1484
1182
1091
1395
1535
1600
1589
1600
1667
1648
1689
1696
1707
1774
1741
1787
1794
1795
1829
1795
1851
1845
1830
1897
1887
1937
1959
1954
1994
1941
1959
1938
1918
1954
1920
1965
1967
1958
2007
1967
2009
1993
1979
2017
1969
1995
1989
1983
2082
2059
2082
2125
2151
2180
2086
2054
1997
1963
1966
1896
1934
1922
1919
1970
1919
1947
1865
1845
2273
3184
3445
2251
1691
1563
1527
1830
1926
1915
1963
1941
1994
1988
1989
2053
2032
2082
2077
2081
2121
2098
2139
2145
2128
2171
2155
2195
2215
2225
2274
2253
2277
2256
2235
2262
2228
2256
2246
2234
2289
2262
2287
2279
2275
2309
2274
2303
2286
2268
2307
2305
2354
2350
2389
2452
2435
2430
2355
2288
2273
2226
2215
2211
2173
2192
2167
2176
2170
2137
2096
2243
3011
3973
2901
2060
1783
1651
1762
2000
2108
2077
2106
2117
2125
2160
2138
2166
2159
2160
2177
2134
2155
2142
2133
2158
2132
2166
2172
2155
2212
2197
2218
2192
2164
2171
2109
2121
2111
2098
2118
2079
2107
2097
2089
2119
2082
2089
2063
2039
2081
2014
2047
2081
2101
2144
2134
2170
2177
2113
2047
1947
1935
1897
1873
1882
1829
1841
1839
1821
1853
1744
1790
2221
3111
3419
2155
1493
1296
1263
1552
1680
1731
1722
1702
1751
1735
1776
1780
1762
1814
1781
1808
1808
1778
1808
1765
1787
1791
1794
1830
1822
1861
1882
1872
1883
1831
1841
1829
1798
1821
1786
1815
1803
1802
1843
1795
1820
1812
1798
1830
1785
1806
1786
1786
1869
1850
1903
1923
1936
1943
1841
1783
1737
1690
1680
1638
1649
1626
1613
1651
1613
1628
1527
1595
2189
3120
2931
1747
1237
1102
1221
1518
1585
1569
1613
1578
1617
1628
1635
1685
1648
1690
1685
1675
1731
1691
1709
1695
1685
1735
1714
1754
1773
1780
1830
1799
1823
1807
1777
1795
1743
1772
1774
1759
1791
1765
1796
1781
1775
1805
1761
1789
1777
1749
1785
1751
1787
1825
1837
1889
1888
1950
1929
1840
1817
1730
1739
1702
1679
1714
1663
1691
1681
1681
1703
1568
1648
2155
3119
2959
1797
1376
1218
1325
1607
1621
1641
1643
1651
1702
1673
1715
1733
1722
1773
1747
1775
1776
1777
1797
1773
1815
1811
1793
1853
1857
1883
1891
1875
1917
1854
1866
1840
1834
1881
1840
1874
1870
1846
1885
1850
1880
1857
1832
1871
1815
1810
1809
1808
1850
1839
1906
1904
1923
1985
1994
1996
1917
1835
1827
1782
1776
1760
1750
1779
1739
1765
1766
1737
1685
1769
2399
3295
2668
1797
1479
1358
1497
1712
1771
1745
1797
1821
1814
1859
1849
1895
1911
1917
1955
1929
1951
1942
1951
1995
1968
2006
2019
2032
2090
2080
2113
2101
2095
2121
2064
2080
2070
2053
2080
2055
2075
2065
2063
2096
2060
2077
2063
2043
2070
2014
2045
2013
2011
2096
2054
2118
2141
2160
2167
2039
2005
1940
1904
1915
1845
1872
1860
1840
1861
1819
1825
1729
1904
2586
3345
2703
1759
1463
1378
1339
1621
1755
1744
1787
1759
1799
1811
1815
1862
1806
1851
1843
1813
1856
1813
1854
1838
1819
1863
1853
1895
1907
1919
1977
1922
1959
1931
1878
1903
1867
1886
1881
1865
1907
1856
1894
1886
1852
1889
1840
1883
1849
1820
1872
1865
1911
1917
1954
2011
1971
1935
1843
1777
1771
1695
1702
1678
1648
1681
1645
1667
1643
1535
1595
1954
2845
3136
2003
1386
1173
1125
1363
1535
1590
1554
1610
1612
1607
1663
1629
1689
1690
1667
1711
1667
1685
1675
1664
1707
1658
1698
1711
1714
1776
1745
1790
1774
1741
1778
1717
1742
1727
1725
1759
1719
1763
1744
1735
1776
1728
1765
1741
1719
1757
1716
1770
1804
1792
1867
1859
1916
1871
1787
1753
1660
1671
1639
1616
1645
1587
1635
1633
1607
1647
1486
1647
2240
3187
2799
1618
1264
1118
1248
1554
1575
1602
1614
1616
1669
1643
1695
1709
1711
1750
1730
1770
1770
1763
1793
1755
1793
1794
1779
1849
1838
1885
1900
1883
1929
1869
1875
1859
1837
1872
1847
1886
1880
1862
1910
1875
1904
1888
1872
1904
1851
1883
1870
1858
1937
1931
1969
1999
2013
2064
1950
1903
1853
1808
1818
1765
1794
1773
1755
1790
1744
1773
1690
1674
2099
2960
3199
2064
1488
1361
1313
1623
1722
1702
1749
1759
1818
1835
1827
1883
1843
1889
1888
1872
1919
1883
1918
1899
1878
1927
1897
1943
1949
1968
2029
1970
2005
1982
1955
1975
1934
1950
1953
1938
1968
1931
1965
1953
1923
1954
1917
1936
1919
1894
1922
1924
1993
1986
1997
2081
2069
2064
1987
1921
1907
1841
1849
1840
1807
1838
1799
1840
1830
1782
1717
1858
2559
3489
2677
1763
1459
1346
1498
1721
1798
1747
1803
1815
1808
1865
1840
1883
1873
1871
1919
1886
1915
1915
1891
1909
1879
1942
1939
1943
2004
1984
2006
1999
1964
1997
1941
1963
1951
1926
1950
1922
1945
1955
1942
1979
1937
1962
1958
1936
1967
1930
1983
2017
1995
2095
2096
2149
2096
2000
1979
1891
1905
1877
1840
1872
1832
1863
1861
1856
1837
1728
2007
2742
3573
2719
1739
1519
1383
1469
1793
1854
1881
1887
1909
1967
1939
1985
2000
1997
2036
2002
2037
2031
2014
2058
2016
2062
2047
2064
2135
2128
2170
2170
2166
2202
2157
2173
2147
2113
2154
2111
2142
2132
2128
2174
2129
2158
2143
2131
2153
2103
2138
2178
2175
2238
2251
2301
2249
2155
2133
2022
2013
1975
1935
1961
1905
1934
1924
1923
1936
1766
1908
2474
3494
3347
1995
1496
1360
1387
1712
1822
1836
1827
1840
1883
1840
1898
1909
1890
1932
1891
1915
1913
1888
1898
1887
1920
1904
1911
1966
1951
2019
2022
1998
2035
1981
1986
1984
1943
1959
1931
1941
1936
1941
1968
1919
1949
1918
1878
1929
1867
1903
1950
1925
1963
1970
2006
1969
1892
1840
1730
1742
1685
1643
1680
1621
1623
1630
1595
1610
1469
1573
2078
3045
3018
1714
1218
1036
1083
1411
1469
1487
1501
1490
1527
1499
1570
1535
1555
1599
1535
1602
1581
1535
1603
1535
1589
1581
1535
1591
1610
1653
1637
1657
1679
1617
1638
1616
1583
1631
1586
1611
1619
1615
1647
1613
1648
1619
1613
1655
1600
1647
1638
1651
1709
1683
1744
1771
1738
1706
1595
1585
1526
1492
1521
1466
1490
1472
1446
1499
1465
1371
1414
1856
2832
2882
1744
1161
1000
1118
1328
1456
1456
1451
1530
1504
1533
1563
1582
1632
1609
1648
1641
1627
1648
1632
1692
1678
1675
1738
1725
1786
1822
1789
1853
1857
1893
1872
1862
1901
1859
1904
1921
1907
1953
1916
1950
1939
1937
1968
1930
1951
1943
1936
2003
2000
2033
2094
2109
2154
2071
2029
1974
1920
1928
1879
1902
1878
1862
1889
1859
1899
1830
1750
2018
2781
3543
2487
1701
1527
1408
1687
1833
1835
1872
1872
1927
1919
1914
1974
1947
1991
1999
2000
2033
1997
2015
2009
1998
2032
2003
2037
2078
2081
2139
2112
2134
2125
2096
2112
2064
2096
2091
2069
2109
2064
2105
2100
2095
2127
2070
2095
2085
2064
2085
2039
2099
2137
2112
2192
2182
2227
2193
2085
2059
1980
1982
1952
1923
1939
1890
1910
1918
1901
1866
1795
2105
2859
3458
2501
1684
1519
1369
1487
1782
1805
1823
1838
1849
1903
1871
1905
1915
1905
1949
1919
1922
1902
1898
1921
1889
1929
1926
1936
1984
1980
2032
2032
2017
2038
1986
1991
1979
1962
1979
1934
1964
1966
1955
1997
1951
1997
1965
1938
1967
1916
1965
1995
1997
2017
2031
2101
2108
2043
1986
1873
1861
1824
1776
1791
1726
1755
1744
1722
1766
1680
1603
1834
2526
3490
2650
1619
1299
1159
1331
1561
1655
1639
1637
1685
1658
1697
1718
1712
1749
1709
1745
1744
1723
1738
1699
1747
1744
1714
1785
1771
1818
1825
1827
1885
1827
1838
1829
1805
1827
1791
1822
1811
1806
1835
1803
1834
1830
1811
1849
1806
1833
1822
1815
1897
1883
1906
1951
1962
1987
1890
1839
1761
1718
1716
1653
1680
1659
1645
1693
1648
1667
1587
1535
1920
2719
3325
2190
1359
1195
1119
1424
1600
1580
1621
1601
1637
1646
1641
1690
1663
1711
1707
1682
1727
1681
1711
1707
1689
1732
1685
1745
1757
1764
1822
1800
1836
1810
1787
1809
1757
1778
1776
1767
1799
1761
1805
1783
1773
1818
1774
1797
1789
1771
1801
1749
1776
1802
1817
1860
1870
1924
1935
1886
1856
1747
1744
1709
1671
1696
1645
1672
1665
1639
1694
1632
1578
1709
2310
3293
2617
1622
1312
1154
1399
1590
1647
1637
1647
1701
1670
1726
1727
1723
1779
1754
1782
1775
1765
1808
1771
1819
1814
1801
1846
1824
1882
1890
1882
1937
1894
1907
1879
1858
1887
1850
1886
1886
1867
1909
1867
1903
1895
1866
1904
1859
1885
1872
1844
1878
1839
1872
1897
1927
1958
1942
2005
2042
1961
1939
1862
1855
1834
1797
1830
1803
1809
1820
1809
1863
1790
1751
1902
2519
3419
2612
1730
1489
1343
1555
1731
1808
1807
1826
1878
1847
1904
1914
1891
1951
1932
1961
1951
1939
1975
1952
1988
1989
1985
2034
2018
2074
2083
2086
2123
2070
2078
2063
2038
2047
2016
2042
2031
2011
2053
2010
2054
2046
2019
2055
2007
2032
2009
2002
2035
2005
2074
2069
2083
2159
2159
2154
2096
1997
1971
1889
1907
1884
1859
1872
1838
1863
1866
1825
1775
1850
2402
3343
3035
1984
1487
1396
1329
1573
1792
1765
1802
1825
1810
1852
1818
1872
1867
1851
1904
1854
1870
1858
1841
1870
1841
1872
1877
1900
1943
1917
1972
1974
1937
1964
1914
1929
1907
1895
1930
1881
1892
1899
1883
1909
1858
1895
1888
1842
1877
1828
1867
1845
1823
1904
1882
1911
1975
1973
2001
1905
1854
1791
1731
1731
1658
1686
1665
1648
1683
1648
1669
1599
1555
1919
2660
3249
2208
1318
1163
1046
1327
1555
1565
1591
1570
1632
1632
1629
1671
1647
1693
1693
1679
1722
1679
1695
1697
1673
1715
1677
1724
1738
1744
1790
1767
1806
1791
1744
1776
1719
1738
1724
1712
1758
1723
1759
1757
1741
1763
1715
1765
1751
1718
1741
1697
1745
1765
1775
1827
1836
1899
1859
1781
1744
1666
1659
1616
1584
1617
1565
1594
1584
1572
1601
1485
1535
1947
2823
3071
1845
1253
1097
1107
1445
1521
1557
1563
1559
1618
1600
1641
1648
1655
1695
1665
1702
1710
1702
1744
1707
1733
1725
1715
1777
1758
1808
1829
1806
1869
1807
1829
1803
1775
1808
1776
1808
1818
1808
1850
1814
1843
1840
1811
1855
1808
1843
1823
1801
1840
1823
1879
1890
1897
1981
1961
1969
1904
1818
1821
1751
1760
1744
1724
1757
1715
1744
1735
1696
1660
1699
2269
3203
2782
1769
1375
1284
1399
1628
1716
1680
1719
1730
1735
1794
1766
1796
1815
1804
1840
1818
1856
1856
1840
1897
1851
1892
1899
1895
1938
1932
1970
1974
1956
1984
1931
1951
1935
1921
1968
1927
1965
1968
1966
1998
1964
1984
1975
1965
1990
1940
1967
1963
1973
2058
2013
2083
2133
2151
2140
2027
2001
1966
1913
1919
1870
1899
1879
1853
1894
1866
1857
1776
1930
2636
3483
2738
1791
1511
1407
1442
1735
1840
1817
1865
1851
1889
1889
1894
1920
1895
1935
1929
1927
1954
1920
1945
1946
1931
1966
1937
1998
2027
2017
2074
2034
2064
2034
2005
2025
1973
1995
1998
1973
2005
1986
2000
2011
1983
2018
1977
2000
1989
1970
1994
1964
2045
2055
2035
2117
2126
2131
2054
1951
1929
1872
1854
1833
1802
1840
1776
1805
1794
1785
1723
1715
2195
3056
3220
2114
1442
1328
1232
1427
1669
1665
1706
1712
1719
1762
1743
1769
1767
1762
1797
1753
1766
1766
1755
1793
1739
1776
1791
1761
1825
1819
1874
1883
1861
1882
1837
1845
1827
1803
1846
1806
1832
1834
1817
1856
1807
1839
1831
1805
1843
1794
1814
1795
1795
1883
1856
1906
1946
1945
1963
1839
1791
1744
1701
1708
1645
1659
1648
1626
1671
1627
1644
1535
1590
2096
2939
3009
1839
1232
1122
1110
1441
1572
1535
1595
1565
1607
1606
1600
1654
1623
1664
1674
1657
1698
1664
1673
1670
1664
1703
1665
1701
1712
1712
1776
1750
1776
1776
1737
1765
1707
1725
1733
1721
1765
1728
1759
1765
1745
1789
1737
1754
1775
1732
1765
1728
1763
1808
1811
1854
1862
1922
1936
1864
1827
1744
1731
1686
1664
1697
1648
1680
1681
1664
1708
1633
1582
1783
2479
3335
2427
1558
1296
1183
1459
1605
1653
1665
1668
1719
1702
1740
1756
1745
1806
1773
1809
1823
1805
1840
1811
1847
1847
1821
1869
1834
1894
1903
1904
1954
1904
1918
1903
1872
1907
1863
1879
1878
1866
1919
1875
1907
1900
1877
1920
1882
1897
1879
1863
1904
1870
1939
1973
1968
2061
2046
2083
2032
1935
1918
1863
1862
1843
1825
1865
1824
1853
1862
1842
1835
1752
2029
2827
3422
2433
1639
1490
1373
1568
1807
1794
1840
1853
1849
1891
1872
1903
1917
1899
1957
1925
1950
1962
1947
1968
1945
1978
1979
1968
2011
2005
2047
2064
2041
2072
2007
2023
2010
1985
2005
1973
2000
1997
1991
2031
1977
2007
1997
1978
2021
1984
2002
1984
1947
1991
1999
2045
2044
2077
2150
2119
2082
1993
1929
1917
1847
1847
1851
1813
1853
1808
1831
1830
1734
1779
2061
2887
3375
2323
1616
1393
1284
1414
1664
1765
1721
1775
1800
1782
1828
1806
1838
1840
1838
1881
1840
1846
1854
1824
1862
1839
1859
1871
1866
1922
1913
1951
1953
1936
1955
1907
1913
1907
1886
1918
1877
1910
1906
1885
1915
1879
1904
1891
1876
1902
1853
1869
1858
1852
1939
1917
1956
1997
1993
1997
1878
1840
1793
1735
1743
1694
1707
1683
1657
1709
1670
1680
1597
1659
2195
3037
3043
1854
1258
1158
1145
1466
1605
1593
1639
1615
1659
1667
1648
1711
1683
1716
1727
1699
1746
1704
1726
1724
1699
1739
1708
1747
1778
1776
1830
1808
1827
1817
1785
1808
1744
1773
1771
1745
1789
1743
1776
1771
1750
1798
1747
1761
1757
1732
1766
1718
1728
1725
1744
1811
1778
1840
1866
1853
1849
1730
1707
1682
1645
1662
1614
1616
1623
1600
1644
1601
1611
1535
1677
2352
3189
2586
1535
1181
1125
1304
1555
1601
1579
1632
1623
1655
1663
1661
1719
1687
1728
1745
1712
1775
1743
1757
1773
1776
1794
1777
1812
1834
1840
1898
1848
1899
1884
1827
1873
1831
1840
1846
1827
1872
1840
1873
1874
1859
1899
1849
1879
1869
1843
1884
1839
1840
1857
1837
1898
1909
1925
1965
1990
2046
1942
1913
1870
1787
1803
1774
1773
1772
1742
1775
1747
1775
1741
1659
1834
2374
3265
2655
1685
1456
1270
1443
1699
1712
1740
1739
1779
1789
1798
1850
1813
1872
1877
1856
1917
1888
1921
1935
1909
1951
1937
1951
1951
1975
2025
2002
2053
2057
2023
2058
1986
2005
2023
1995
2018
2013
2042
2029
2026
2076
2025
2057
2043
2019
2063
2013
2018
2033
2027
2087
2075
2128
2161
2182
2179
2044
2009
1968
1911
1935
1898
1904
1889
1856
1890
1863
1871
1786
1906
2518
3417
2950
1911
1498
1441
1369
1648
1813
1791
1833
1839
1871
1872
1876
1923
1885
1921
1936
1893
1943
1903
1905
1911
1890
1919
1911
1952
1939
1957
2019
1984
2011
1995
1947
2000
1949
1949
1975
1950
1962
1920
1960
1975
1949
1986
1953
1968
1972
1924
1963
1908
1920
1977
1970
1987
2003
2067
2077
1998
1957
1846
1824
1802
1754
1771
1721
1738
1728
1716
1750
1671
1622
1862
2503
3437
2653
1594
1261
1119
1287
1534
1631
1637
1633
1687
1653
1697
1706
1699
1755
1721
1744
1744
1713
1749
1725
1744
1749
1728
1777
1759
1799
1817
1813
1869
1824
1845
1845
1809
1851
1794
1802
1808
1787
1823
1793
1826
1828
1798
1838
1797
1814
1808
1773
1808
1781
1840
1861
1838
1933
1919
1939
1893
1781
1771
1680
1680
1666
1619
1649
1607
1629
1646
1607
1613
1510
1756
2479
3235
2441
1424
1168
1083
1281
1557
1535
1561
1597
1587
1643
1615
1648
1664
1648
1712
1680
1712
1722
1694
1729
1686
1725
1729
1714
1769
1750
1794
1819
1794
1850
1805
1814
1800
1751
1814
1779
1791
1814
1803
1838
1808
1822
1821
1805
1837
1790
1810
1818
1781
1822
1802
1875
1902
1872
1965
1961
1963
1918
1821
1821
1754
1746
1744
1712
1740
1712
1738
1744
1705
1680
1627
1947
2777
3234
2225
1488
1300
1276
1515
1702
1679
1706
1725
1711
1782
1754
1779
1806
1802
1847
1819
1852
1853
1823
1877
1840
1857
1879
1849
1907
1888
1939
1964
1945
1968
1920
1931
1935
1897
1938
1903
1927
1942
1915
1958
1925
1946
1951
1924
1958
1919
1936
1934
1913
1956
1920
1979
2007
2000
2074
2078
2137
2121
2005
1994
1920
1914
1888
1867
1899
1865
1883
1900
1866
1903
1789
1910
2462
3371
2975
1911
1571
1444
1427
1747
1829
1851
1860
1855
1927
1897
1919
1945
1937
1981
1954
1962
1975
1957
1983
1949
1979
1984
1981
2022
2009
2065
2075
2044
2096
2055
2059
2043
1997
2031
1990
1999
2011
1998
2045
2000
2023
2026
2007
2037
1999
2000
1994
1959
2063
2047
2047
2112
2119
2180
2093
2027
1964
1891
1889
1840
1853
1822
1791
1820
1795
1792
1774
1648
1871
2449
3410
2895
1776
1424
1246
1269
1562
1674
1725
1680
1714
1741
1721
1758
1747
1775
1781
1751
1794
1761
1762
1759
1724
1776
1731
1775
1792
1794
1874
1867
1874
1882
1845
1872
1846
1838
1846
1815
1858
1806
1832
1842
1811
1860
1825
1834
1840
1798
1843
1802
1804
1800
1776
1855
1840
1857
1914
1917
1978
1895
1823
1772
1705
1702
1643
1659
1649
1622
1658
1616
1631
1621
1517
1723
2272
3181
2733
1589
1227
1038
1202
1504
1535
1581
1559
1584
1603
1586
1651
1622
1666
1677
1648
1696
1667
1681
1694
1653
1709
1665
1694
1723
1712
1776
1763
1792
1796
1772
1805
1744
1758
1761
1730
1775
1744
1776
1783
1761
1804
1772
1791
1793
1769
1803
1757
1775
1769
1727
1799
1811
1841
1877
1893
1959
1931
1885
1826
1745
1770
1699
1699
1701
1666
1710
1661
1695
1709
1633
1630
1813
2537
3312
2396
1558
1264
1213
1460
1616
1685
1659
1694
1720
1701
1750
1744
1773
1802
1778
1834
1794
1823
1835
1803
1846
1824
1840
1850
1839
1902
1878
1919
1938
1907
1941
1886
1887
1892
1858
1904
1870
1894
1916
1879
1927
1891
1899
1909
1881
1911
1873
1889
1897
1855
1901
1856
1883
1927
1920
1963
1983
2025
2047
1971
1938
1862
1847
1829
1783
1813
1773
1794
1789
1761
1808
1742
1689
1886
2512
3347
2512
1687
1454
1289
1525
1712
1754
1767
1754
1823
1799
1822
1847
1840
1895
1872
1905
1909
1882
1936
1919
1921
1950
1922
1977
1959
1993
2038
2019
2066
2028
2043
2046
2000
2022
2000
2014
2029
2001
2053
2013
2031
2042
2013
2043
2010
2041
2032
1997
2037
1997
1998
2030
2037
2085
2086
2155
2192
2121
2101
2000
1977
1950
1892
1918
1888
1887
1889
1857
1901
1867
1805
1850
2219
3111
3235
2202
1610
1434
1362
1514
1763
1819
1798
1846
1826
1865
1889
1867
1907
1878
1904
1914
1867
1916
1877
1872
1894
1872
1915
1904
1930
1967
1944
2006
1981
1968
1984
1947
1973
1936
1939
1950
1922
1954
1910
1936
1949
1909
1951
1922
1923
1918
1894
1930
1883
1898
1904
1872
1943
1941
1966
2029
2019
2043
1945
1873
1842
1780
1767
1727
1719
1728
1691
1738
1707
1715
1663
1648
2066
2850
3242
2143
1354
1205
1141
1430
1638
1621
1669
1645
1674
1693
1680
1742
1713
1735
1760
1727
1773
1732
1747
1767
1738
1776
1755
1781
1811
1794
1871
1853
1879
1887
1838
1863
1819
1820
1831
1793
1839
1798
1810
1838
1796
1854
1808
1815
1829
1794
1827
1782
1792
1792
1761
1846
1835
1847
1914
1903
1949
1872
1799
1764
1700
1699
1648
1650
1666
1622
1657
1619
1634
1635
1517
1712
2258
3174
2739
1611
1248
1081
1262
1535
1555
1597
1581
1615
1647
1617
1669
1649
1680
1713
1680
1739
1712
1713
1735
1705
1751
1726
1737
1761
1744
1817
1808
1833
1845
1808
1843
1802
1799
1815
1766
1817
1795
1805
1823
1807
1853
1810
1821
1839
1794
1842
1809
1808
1821
1790
1836
1801
1837
1903
1874
1947
1947
1984
1975
1887
1872
1791
1779
1767
1729
1759
1725
1743
1760
1721
1766
1655
1693
2076
2902
3136
2014
1478
1337
1310
1631
1701
1702
1745
1726
1782
1764
1792
1823
1796
1857
1831
1845
1888
1843
1873
1861
1874
1900
1861
1923
1915
1933
1968
1949
2000
1966
1967
1978
1923
1961
1923
1938
1965
1937
1982
1955
1971
1997
1939
1989
1968
1984
1993
1943
1993
1965
1968
1990
2005
2080
2070
2118
2153
2123
2106
2005
1963
1963
1902
1923
1881
1887
1908
1871
1914
1887
1835
1838
2112
2947
3319
2334
1689
1478
1383
1535
1792
1850
1806
1872
1851
1869
1917
1888
1931
1910
1933
1947
1925
1954
1909
1921
1941
1919
1978
1952
1979
2014
2003
2064
2035
2043
2045
1993
2017
1979
1975
2005
1958
1993
1986
1999
2000
1969
2016
1994
1987
2001
1955
1983
1946
1967
2011
1998
2038
2047
2107
2160
2067
2016
1927
1892
1881
1810
1850
1810
1808
1817
1775
1809
1776
1686
1835
2351
3326
3014
1882
1431
1265
1291
1533
1671
1702
1680
1731
1696
1718
1765
1735
1777
1751
1766
1792
1751
1779
1744
1754
1776
1740
1778
1776
1810
1856
1843
1902
1870
1872
1882
1826
1857
1826
1824
1842
1806
1856
1824
1840
1853
1819
1856
1830
1835
1853
1809
1841
1810
1810
1851
1855
1899
1908
1958
2000
1925
1889
1791
1747
1743
1667
1702
1666
1666
1685
1643
1683
1653
1581
1657
2063
2991
3055
1879
1321
1116
1182
1456
1586
1603
1575
1637
1622
1613
1649
1634
1687
1665
1679
1709
1675
1718
1685
1695
1714
1674
1729
1709
1731
1779
1759
1825
1808
1809
1815
1771
1801
1758
1755
1783
1762
1810
1787
1782
1806
1776
1823
1783
1795
1809
1774
1799
1761
1767
1771
1770
1871
1840
1886
1943
1923
1937
1840
1787
1775
1710
1725
1686
1683
1694
1662
1703
1685
1685
1636
1617
2097
2970
3056
1943
1373
1245
1280
1567
1677
1642
1702
1689
1719
1749
1723
1776
1761
1779
1814
1781
1827
1808
1811
1835
1808
1855
1834
1846
1885
1872
1923
1920
1926
1933
1891
1925
1891
1891
1903
1874
1915
1898
1911
1922
1887
1923
1895
1898
1912
1872
1906
1867
1873
1894
1862
1953
1951
1961
2030
2025
2071
1989
1926
1904
1846
1857
1823
1820
1829
1786
1840
1824
1831
1820
1713
1962
2647
3398
2543
1692
1520
1360
1566
1789
1787
1840
1831
1853
1885
1861
1920
1908
1916
1952
1931
1980
1953
1965
1979
1936
1978
1968
1968
2021
2004
2074
2067
2080
2098
2034
2067
2023
2015
2027
1993
2027
2014
2003
2014
1987
2030
2000
2005
2032
1978
2027
1991
1984
2007
2007
2069
2046
2096
2154
2141
2123
2003
1968
1959
1859
1887
1844
1826
1865
1815
1845
1846
1807
1729
1904
2559
3381
2729
1798
1451
1370
1342
1623
1776
1753
1777
1783
1803
1831
1811
1853
1806
1843
1877
1820
1872
1829
1824
1856
1807
1846
1857
1867
1904
1901
1968
1959
1966
1964
1899
1942
1904
1878
1924
1872
1899
1885
1891
1889
1872
1909
1867
1891
1895
1840
1888
1846
1830
1904
1904
1920
1952
1974
2022
1951
1897
1796
1774
1776
1670
1713
1680
1653
1691
1648
1667
1644
1555
1699
2247
3216
2869
1691
1262
1071
1216
1488
1570
1599
1578
1634
1627
1629
1651
1643
1698
1667
1689
1717
1665
1715
1685
1679
1715
1677
1715
1719
1737
1779
1782
1839
1799
1814
1822
1753
1797
1762
1761
1792
1747
1776
1781
1789
1804
1776
1817
1763
1780
1796
1739
1782
1750
1751
1840
1808
1858
1888
1915
1930
1850
1805
1724
1712
1695
1619
1678
1631
1616
1653
1616
1653
1607
1520
1735
2381
3298
2544
1520
1237
1071
1349
1564
1582
1606
1600
1664
1648
1663
1707
1679
1738
1725
1725
1763
1731
1767
1749
1756
1792
1749
1803
1793
1808
1865
1845
1905
1872
1869
1896
1838
1873
1837
1829
1866
1835
1888
1871
1875
1897
1861
1895
1866
1858
1894
1841
1875
1846
1845
1887
1904
1966
1946
1986
2038
2010
1987
1908
1863
1855
1791
1818
1791
1793
1808
1773
1813
1799
1755
1709
1872
2608
3375
2510
1706
1419
1354
1535
1735
1775
1745
1802
1795
1817
1852
1835
1890
1877
1889
1916
1891
1932
1905
1907
1942
1917
1958
1951
1963
2014
2001
2069
2061
2064
2094
2032
2067
2022
2025
2068
2015
2063
2044
2047
2089
2030
2077
2047
2034
2071
2027
2064
2035
2028
2039
2035
2125
2107
2135
2209
2178
2176
2071
2015
2007
1936
1959
1921
1917
1934
1895
1934
1916
1882
1831
1936
2601
3479
2841
1905
1535
1451
1427
1713
1850
1820
1883
1867
1863
1907
1883
1920
1907
1921
1967
1911
1938
1931
1938
1964
1913
1952
1932
1961
2011
1988
2047
2037
2035
2064
2011
2027
1998
1984
1987
1957
1986
1973
1978
2002
1959
2003
1981
1968
2000
1943
1975
1941
1941
1975
1967
2032
2006
2055
2121
2096
2069
1949
1891
1872
1797
1815
1779
1764
1776
1741
1766
1753
1732
1666
1771
2386
3305
2908
1771
1298
1207
1248
1534
1676
1635
1686
1678
1681
1712
1699
1757
1730
1730
1760
1731
1769
1745
1732
1753
1730
1776
1761
1759
1804
1793
1847
1855
1850
1868
1822
1855
1815
1797
1819
1782
1817
1803
1807
1831
1804
1841
1814
1810
1840
1791
1812
1798
1771
1793
1775
1852
1844
1861
1933
1910
1925
1830
1758
1742
1670
1669
1621
1615
1634
1587
1623
1600
1601
1555
1526
1978
2815
3109
1984
1269
1130
1122
1417
1570
1515
1582
1580
1594
1633
1602
1652
1656
1662
1698
1666
1715
1693
1695
1723
1691
1725
1714
1728
1769
1749
1831
1830
1825
1855
1805
1840
1799
1792
1810
1764
1823
1797
1802
1847
1807
1840
1820
1810
1847
1807
1840
1814
1799
1827
1784
1829
1828
1872
1909
1878
1965
1973
1958
1925
1828
1829
1783
1751
1775
1725
1758
1731
1735
1758
1723
1712
1663
1946
2775
3216
2227
1521
1344
1327
1535
1718
1718
1708
1763
1744
1799
1805
1814
1845
1813
1859
1847
1857
1891
1846
1902
1889
1877
1919
1883
1931
1936
1966
2025
1990
2022
2005
1990
2000
1955
1999
1983
1981
2015
1973
2006
1990
1991
2032
1986
2021
1999
1993
2006
1970
2001
1979
1994
2059
2041
2102
2112
2133
2178
2094
2061
1981
1951
1955
1903
1920
1889
1881
1895
1872
1904
1861
1797
2035
2662
3455
2614
1755
1566
1370
1479
1729
1814
1845
1813
1877
1857
1867
1917
1874
1919
1913
1905
1953
1901
1939
1910
1906
1939
1911
1955
1946
1962
2022
1998
2047
2032
2016
2031
1984
1996
1970
1968
1987
1955
1978
1977
1965
1984
1950
1989
1957
1964
1985
1931
1969
1941
1930
1953
1951
2007
1993
2046
2107
2067
2038
1923
1873
1872
1793
1800
1773
1757
1776
1740
1767
1749
1709
1667
1809
2480
3339
2723
1662
1278
1194
1265
1535
1676
1626
1670
1660
1678
1712
1680
1735
1712
1712
1754
1712
1751
1732
1728
1747
1709
1754
1732
1759
1793
1771
1834
1839
1845
1870
1810
1840
1809
1798
1813
1779
1808
1794
1785
1814
1779
1813
1795
1788
1811
1766
1805
1766
1748
1767
1731
1813
1822
1818
1888
1883
1934
1869
1775
1755
1682
1682
1632
1611
1636
1594
1637
1615
1617
1629
1504
1658
2179
3087
2816
1646
1258
1088
1239
1535
1573
1600
1600
1616
1662
1622
1681
1683
1680
1722
1685
1739
1717
1730
1750
1723
1759
1744
1753
1782
1767
1829
1819
1840
1878
1840
1857
1826
1820
1840
1795
1835
1809
1830
1858
1813
1862
1835
1836
1859
1814
1857
1825
1817
1842
1802
1831
1807
1831
1906
1872
1950
1954
1981
1984
1868
1856
1808
1774
1776
1718
1762
1722
1713
1750
1715
1754
1663
1673
2069
2894
3120
2009
1456
1326
1286
1621
1710
1700
1744
1741
1786
1774
1794
1840
1802
1840
1823
1840
1863
1817
1872
1860
1862
1902
1866
1914
1919
1934
1989
1950
2001
2002
1982
2000
1949
1981
1962
1956
1985
1953
1985
1983
1984
2014
1969
2007
1995
1990
2010
1962
1985
1975
1966
1987
1985
2066
2046
2098
2160
2122
2112
2026
1975
1965
1893
1907
1883
1871
1904
1861
1891
1870
1830
1803
1916
2537
3391
2797
1854
1507
1413
1391
1663
1825
1802
1842
1844
1856
1896
1856
1916
1893
1915
1927
1904
1936
1919
1916
1917
1885
1943
1920
1932
1974
1959
2019
2003
2010
2032
1981
2000
1981
1958
1981
1936
1981
1959
1955
1986
1949
1983
1953
1952
1968
1916
1962
1930
1921
1930
1914
1968
1959
1997
2064
2066
2077
1995
1898
1874
1797
1803
1746
1744
1755
1709
1758
1733
1718
1685
1634
2012
2791
3325
2303
1429
1273
1165
1387
1633
1631
1664
1659
1666
1700
1679
1741
1713
1726
1744
1712
1761
1744
1735
1756
1712
1757
1743
1745
1779
1776
1841
1824
1835
1874
1827
1843
1813
1808
1840
1776
1819
1803
1783
1814
1777
1808
1804
1791
1823
1766
1799
1778
1771
1791
1730
1787
1833
1817
1857
1867
1938
1898
1829
1785
1689
1698
1648
1628
1629
1597
1621
1603
1611
1649
1535
1535
1787
2527
3251
2256
1429
1170
1090
1375
1531
1593
1574
1593
1635
1600
1663
1653
1680
1710
1680
1724
1682
1703
1749
1712
1746
1718
1728
1763
1733
1805
1809
1815
1860
1831
1869
1833
1822
1827
1779
1831
1806
1819
1840
1802
1858
1825
1825
1856
1813
1833
1829
1839
1840
1797
1839
1808
1840
1911
1872
1947
1954
1982
1975
1870
1856
1798
1766
1779
1717
1751
1722
1721
1759
1710
1749
1664
1674
2075
2896
3138
1987
1461
1339
1288
1600
1695
1699
1723
1707
1781
1757
1762
1811
1790
1845
1815
1814
1865
1805
1862
1853
1853
1890
1843
1907
1895
1921
1973
1954
2004
1971
1984
2000
1951
1977
1943
1952
1969
1941
1987
1966
1971
2000
1975
2017
1970
1975
2000
1984
1998
1971
1995
2053
2028
2081
2111
2153
2170
2087
2065
1973
1948
1965
1904
1920
1888
1873
1904
1872
1913
1840
1776
2014
2635
3526
2719
1781
1535
1374
1470
1712
1822
1858
1834
1903
1879
1889
1917
1903
1959
1955
1942
1971
1937
1975
1931
1954
1982
1936
1991
1982
1997
2015
2043
2094
2073
2061
2067
2011
2039
2015
2011
2032
1973
2042
2013
2007
2032
1987
2039
1998
2000
2002
1966
1986
1950
1966
2010
1984
2029
2064
2097
2096
2016
1974
1899
1858
1840
1773
1804
1754
1755
1776
1728
1763
1705
1628
1823
2387
3387
2845
1703
1321
1158
1290
1562
1638
1678
1647
1708
1681
1680
1726
1701
1735
1712
1744
1757
1705
1771
1712
1717
1744
1709
1765
1756
1766
1821
1805
1862
1839
1831
1852
1806
1855
1804
1792
1811
1792
1823
1803
1801
1826
1786
1824
1783
1800
1808
1766
1805
1779
1769
1803
1808
1851
1851
1895
1936
1851
1810
1719
1681
1675
1600
1634
1594
1595
1628
1587
1616
1559
1505
1569
1939
2895
3027
1856
1264
1063
1159
1419
1535
1575
1535
1593
1573
1569
1629
1603
1676
1644
1663
1699
1663
1716
1685
1693
1721
1695
1737
1706
1738
1776
1783
1831
1808
1831
1833
1779
1815
1778
1783
1814
1772
1827
1806
1814
1831
1807
1862
1808
1825
1839
1789
1814
1795
1807
1809
1795
1898
1877
1901
1955
1953
1984
1891
1849
1818
1777
1839
1806
1814
1822
1792
1834
1802
1810
1776
1682
1964
2702
3382
2403
1598
1447
1298
1559
1755
1722
1777
1767
1776
1814
1781
1836
1826
1840
1856
1847
1902
1859
1870
1886
1851
1914
1888
1911
1954
1947
2007
2002
2027
2032
2013
2029
1990
1995
2002
1968
2016
1977
2000
2032
2012
2037
2010
2026
2031
2015
2047
2006
2004
2025
1989
2084
2074
2094
2166
2161
2208
2129
2064
2006
1954
1965
1911
1933
1919
1872
1935
1894
1904
1888
1786
1984
2538
3449
2881
1895
1589
1408
1424
1696
1790
1864
1839
1856
1884
1863
1894
1891
1922
1924
1934
1943
1915
1952
1948
1901
1946
1915
1930
1969
1951
1989
2000
2015
2026
2005
2047
1983
1998
1999
1949
1994
1958
1973
1989
1954
2002
1987
1983
1968
1950
1997
1949
1948
1954
1907
2008
1991
1971
2059
2042
2100
2029
1967
1898
1833
1825
1770
1775
1771
1712
1759
1724
1729
1744
1612
1744
2256
3170
3091
1875
1359
1174
1205
1495
1582
1680
1622
1653
1682
1691
1708
1694
1723
1727
1710
1743
1713
1741
1733
1691
1754
1714
1733
1747
1739
1799
1811
1835
1823
1833
1856
1797
1823
1810
1761
1834
1781
1793
1810
1791
1825
1787
1807
1807
1765
1815
1775
1775
1776
1735
1803
1792
1827
1845
1870
1927
1867
1827
1762
1690
1708
1623
1626
1629
1599
1623
1583
1606
1638
1535
1535
1762
2506
3259
2330
1456
1149
1093
1379
1535
1598
1554
1598
1625
1618
1674
1641
1678
1705
1680
1737
1716
1738
1744
1712
1772
1727
1755
1777
1769
1823
1792
1857
1874
1845
1881
1813
1846
1839
1805
1845
1812
1838
1851
1824
1869
1835
1872
1872
1839
1881
1839
1856
1857
1824
1862
1821
1856
1904
1895
1953
1965
2005
1998
1920
1906
1831
1823
1795
1755
1795
1744
1765
1770
1747
1791
1727
1685
1856
2494
3376
2501
1664
1424
1277
1520
1696
1745
1750
1744
1813
1776
1811
1837
1808
1867
1840
1873
1888
1871
1923
1876
1910
1910
1891
1943
1919
1968
1988
1988
2074
2026
2043
2032
1998
2031
1984
2014
2018
1984
2038
2006
2037
2041
2015
2063
2022
2037
2053
2014
2058
2001
2019
2019
2042
2113
2073
2133
2192
2170
2155
2033
2000
1962
1921
1925
1891
1886
1895
1878
1905
1872
1867
1801
1937
2588
3409
2822
1842
1509
1422
1363
1684
1815
1795
1858
1839
1859
1863
1856
1902
1871
1905
1893
1893
1936
1885
1899
1903
1881
1933
1904
1935
1936
1942
1989
1972
2017
2000
1971
2011
1950
1968
1963
1943
1968
1918
1959
1947
1923
1959
1909
1955
1938
1905
1967
1902
1894
1917
1886
1958
1942
1972
2009
2031
2078
1983
1904
1850
1807
1792
1719
1742
1728
1687
1717
1691
1725
1691
1610
1818
2417
3327
2758
1610
1297
1127
1263
1535
1606
1645
1616
1664
1665
1654
1714
1676
1723
1718
1703
1742
1693
1728
1715
1691
1715
1681
1729
1738
1710
1797
1774
1831
1839
1808
1840
1777
1795
1783
1760
1805
1756
1780
1770
1764
1807
1782
1797
1791
1767
1792
1747
1779
1773
1730
1776
1791
1850
1839
1872
1933
1875
1846
1781
1694
1713
1637
1645
1619
1601
1627
1591
1629
1621
1573
1535
1681
2370
3229
2512
1522
1163
1093
1307
1535
1614
1575
1614
1652
1621
1675
1645
1690
1706
1699
1743
1711
1733
1738
1723
1791
1744
1775
1770
1765
1837
1810
1856
1872
1870
1899
1850
1872
1851
1830
1857
1810
1851
1846
1839
1885
1835
1895
1869
1846
1886
1840
1885
1853
1843
1875
1819
1861
1890
1905
1968
1951
2015
2016
1960
1930
1855
1819
1794
1776
1774
1739
1754
1765
1747
1782
1729
1697
1771
2234
3174
2832
1838
1447
1289
1412
1627
1733
1719
1712
1773
1738
1794
1799
1792
1841
1793
1847
1846
1853
1883
1843
1867
1874
1872
1905
1892
1937
1941
1941
2000
1988
2011
2000
1957
2001
1949
1974
1984
1966
1997
1959
2011
2002
1977
2023
1978
2014
2000
1974
2016
1968
1969
1978
2005
2091
2039
2132
2139
2151
2135
2035
2018
1967
1910
1933
1890
1915
1893
1861
1892
1864
1901
1818
1871
2352
3170
3146
2067
1581
1457
1328
1609
1801
1826
1854
1815
1858
1879
1863
1902
1883
1902
1927
1917
1936
1904
1925
1927
1906
1939
1917
1936
1942
1962
2013
2002
2077
2028
2009
2020
1950
1979
1951
1943
1985
1964
2000
1969
1952
1984
1958
1975
1966
1948
1975
1930
1961
1926
1922
1966
1970
2000
2016
2034
2126
2041
1981
1898
1842
1842
1754
1777
1758
1726
1755
1734
1755
1729
1638
1710
2042
2925
3203
2081
1451
1224
1171
1421
1612
1663
1630
1679
1666
1666
1709
1674
1723
1723
1707
1750
1717
1744
1733
1710
1734
1701
1733
1728
1733
1765
1763
1808
1818
1801
1826
1782
1798
1776
1758
1783
1739
1773
1770
1751
1771
1728
1762
1759
1746
1782
1725
1757
1735
1711
1747
1732
1813
1806
1812
1886
1874
1875
1794
1712
1712
1648
1653
1630
1616
1643
1611
1646
1616
1600
1584
1556
1942
2792
3146
2046
1311
1157
1201
1482
1613
1568
1619
1630
1647
1682
1659
1678
1681
1702
1739
1711
1742
1743
1742
1771
1738
1767
1776
1777
1806
1798
1858
1871
1871
1895
1862
1881
1851
1840
1859
1825
1853
1839
1842
1871
1837
1865
1856
1847
1868
1825
1854
1840
1831
1866
1808
1830
1825
1856
1921
1879
1968
1983
1991
1989
1856
1856
1808
1769
1783
1750
1763
1744
1729
1749
1726
1739
1649
1743
2263
3120
2819
1778
1414
1296
1390
1681
1700
1699
1744
1742
1791
1781
1787
1824
1790
1835
1823
1833
1863
1829
1865
1851
1857
1905
1881
1931
1934
1957
2000
1984
2032
2000
2005
2023
1984
1996
1967
1967
2010
1971
2001
1994
1991
2014
1977
2006
1985
1977
2000
1953
1997
1973
1967
1990
1994
2057
2065
2096
2170
2147
2119
2022
1968
1962
1897
1920
1894
1855
1899
1846
1889
1885
1860
1823
1967
2650
3370
2657
1782
1502
1408
1409
1685
1835
1795
1854
1858
1868
1902
1872
1920
1904
1907
1947
1917
1954
1936
1911
1945
1905
1943
1941
1961
2002
2000
2064
2064
2072
2087
2033
2085
2029
2011
2071
2000
2023
2027
2001
2035
2021
2043
2034
2007
2030
1983
2014
1983
1968
2018
2016
2046
2063
2104
2174
2092
2032
1943
1894
1869
1807
1843
1807
1793
1821
1765
1797
1794
1711
1749
2115
2977
3344
2159
1476
1302
1243
1425
1667
1722
1687
1746
1727
1748
1793
1759
1797
1789
1802
1837
1781
1825
1809
1781
1803
1757
1810
1799
1822
1865
1847
1920
1923
1914
1946
1904
1931
1908
1895
1917
1863
1897
1886
1902
1931
1891
1930
1909
1907
1926
1897
1933
1889
1902
1978
1951
2010
2046
2090
2087
1984
1935
1867
1822
1811
1750
1787
1748
1758
1778
1741
1771
1694
1639
1911
2532
3481
2715
1531
1258
1145
1360
1600
1687
1707
1667
1740
1712
1722
1763
1728
1789
1777
1775
1789
1753
1790
1760
1743
1777
1738
1786
1776
1782
1836
1824
1886
1862
1869
1869
1836
1860
1814
1821
1845
1793
1840
1834
1855
1857
1819
1849
1835
1864
1877
1827
1857
1823
1829
1859
1868
1937
1911
1973
2037
1987
1974
1852
1818
1808
1744
1758
1730
1719
1731
1707
1751
1733
1698
1671
1847
2546
3309
2614
1600
1257
1195
1372
1620
1675
1631
1686
1680
1683
1712
1690
1744
1723
1744
1765
1717
1765
1741
1743
1757
1694
1752
1741
1750
1791
1786
1845
1838
1858
1871
1823
1844
1794
1787
1803
1764
1809
1785
1789
1808
1762
1804
1776
1782
1792
1744
1780
1743
1747
1757
1711
1747
1712
1746
1813
1794
1846
1871
1907
1887
1776
1759
1701
1681
1662
1618
1643
1611
1616
1638
1608
1639
1555
1584
1981
2763
2987
1886
1287
1169
1136
1463
1563
1570
1607
1595
1649
1634
1651
1681
1648
1703
1691
1709
1723
1698
1733
1712
1727
1733
1714
1773
1763
1786
1832
1834
1882
1859
1855
1863
1830
1855
1823
1824
1845
1814
1857
1840
1856
1858
1822
1866
1839
1841
1857
1834
1857
1829
1840
1858
1812
1862
1888
1920
1941
1962
2063
2012
1968
1910
1831
1840
1787
1776
1791
1756
1782
1757
1751
1783
1712
1707
1895
2610
3269
2352
1611
1392
1298
1566
1697
1760
1742
1771
1806
1775
1835
1813
1834
1861
1838
1877
1855
1872
1886
1858
1894
1867
1880
1905
1889
1949
1939
1984
2015
1985
2016
1975
1981
1970
1943
1986
1948
1961
1987
1971
2007
1985
1984
2005
1968
2009
1980
1984
2001
1978
2013
1979
1983
2018
2026
2074
2075
2138
2192
2145
2125
2025
2001
1987
1923
1955
1911
1908
1915
1885
1937
1904
1862
1861
2093
2843
3302
2451
1733
1553
1440
1567
1810
1872
1839
1904
1891
1926
1947
1913
1976
1945
1962
1997
1957
1987
1969
1968
1978
1962
1997
1977
2029
2080
2055
2127
2112
2114
2138
2073
2082
2064
2042
2046
2007
2047
2015
2047
2043
1994
2067
2011
2014
2047
1999
2023
1993
1999
1998
2007
2075
2010
2093
2147
2139
2147
2015
1949
1943
1876
1874
1842
1846
1839
1813
1845
1790
1815
1733
1773
2277
3043
3083
2047
1479
1383
1281
1511
1707
1730
1772
1744
1781
1797
1760
1840
1806
1815
1855
1805
1827
1813
1813
1805
1776
1826
1783
1817
1841
1821
1904
1903
1910
1921
1886
1905
1863
1859
1840
1818
1862
1815
1838
1851
1808
1862
1808
1810
1829
1801
1815
1803
1807
1797
1772
1821
1814
1859
1885
1897
1985
1931
1865
1809
1737
1729
1667
1666
1653
1623
1655
1605
1634
1637
1571
1581
1750
2390
3125
2400
1472
1199
1088
1265
1503
1599
1558
1605
1630
1591
1664
1645
1658
1698
1675
1711
1693
1711
1701
1685
1734
1691
1732
1727
1697
1773
1770
1792
1839
1818
1840
1809
1813
1805
1775
1808
1763
1799
1794
1763
1826
1799
1804
1808
1776
1822
1797
1807
1802
1792
1816
1762
1795
1845
1841
1889
1905
1968
2005
1936
1891
1808
1792
1762
1711
1742
1693
1712
1707
1682
1741
1694
1645
1713
2125
3005
2931
1843
1345
1180
1292
1535
1659
1681
1659
1724
1708
1736
1762
1749
1808
1789
1812
1840
1806
1846
1823
1835
1840
1809
1860
1827
1854
1878
1869
1929
1911
1926
1931
1883
1911
1872
1874
1881
1851
1895
1867
1885
1888
1863
1906
1871
1887
1893
1858
1901
1850
1872
1872
1845
1883
1872
1930
1942
1951
2043
2025
2000
1936
1853
1866
1792
1788
1793
1753
1783
1735
1758
1776
1734
1728
1695
2068
2885
3087
2063
1459
1318
1328
1578
1721
1692
1733
1759
1743
1783
1763
1799
1814
1792
1849
1813
1844
1863
1832
1864
1833
1862
1872
1842
1895
1880
1930
1961
1937
1982
1941
1955
1953
1919
1943
1904
1936
1936
1920
1968
1938
1962
1965
1941
1983
1927
1957
1959
1925
1968
1918
1938
1937
1910
1981
1986
2003
2032
2062
2129
2077
2016
1950
1885
1904
1859
1856
1851
1813
1849
1809
1840
1836
1770
1813
2103
2875
3139
2137
1535
1402
1312
1504
1687
1765
1729
1776
1776
1757
1811
1789
1823
1812
1791
1840
1802
1819
1808
1770
1813
1776
1794
1802
1791
1851
1835
1879
1883
1854
1889
1823
1831
1815
1776
1808
1770
1803
1773
1754
1791
1744
1765
1771
1743
1771
1718
1733
1733
1705
1733
1690
1743
1781
1735
1833
1839
1867
1822
1697
1683
1610
1598
1573
1533
1568
1515
1533
1535
1505
1535
1421
1525
1991
2752
2790
1701
1159
1062
965
1242
1366
1435
1452
1437
1493
1453
1487
1475
1484
1529
1477
1520
1534
1477
1520
1469
1491
1502
1499
1535
1514
1535
1584
1596
1646
1599
1616
1615
1570
1591
1535
1595
1600
1553
1600
1535
1572
1585
1574
1603
1553
1605
1612
1587
1635
1572
1593
1599
1569
1619
1633
1684
1696
1727
1812
1763
1744
1659
1600
1610
1535
1534
1535
1499
1565
1516
1553
1580
1525
1506
1605
2165
2983
2634
1591
1158
1066
1198
1455
1587
1535
1600
1621
1610
1666
1633
1678
1695
1687
1747
1715
1748
1759
1744
1780
1744
1777
1791
1776
1824
1815
1871
1887
1882
1930
1877
1892
1899
1856
1897
1853
1875
1879
1862
1920
1872
1905
1913
1888
1925
1881
1919
1920
1888
1927
1890
1916
1903
1875
1951
1965
1991
2033
2064
2121
2033
1984
1920
1872
1885
1823
1831
1825
1806
1843
1797
1823
1831
1754
1791
2086
2934
3354
2218
1558
1335
1360
1655
1760
1820
1789
1829
1846
1839
1887
1857
1904
1908
1910
1951
1915
1948
1953
1930
1966
1929
1965
1965
1955
2019
1987
2038
2059
2032
2071
2012
2031
2012
1985
2021
1984
2005
2007
1998
2034
2002
2030
2017
1987
2032
1978
2005
2000
1974
2009
1961
1986
1979
1958
1995
1962
2035
2074
2043
2135
2145
2160
2112
2009
1995
1936
1925
1903
1877
1913
1861
1885
1882
1867
1883
1779
1917
2432
3296
2943
1847
1527
1398
1520
1807
1823
1856
1866
1881
1922
1901
1950
1957
1952
1987
1968
2018
2015
1999
2032
1994
2034
2038
2022
2098
2064
2112
2137
2137
2205
2145
2173
2160
2133
2176
2126
2147
2146
2119
2178
2129
2179
2154
2135
2181
2129
2151
2138
2119
2147
2099
2115
2112
2093
2145
2116
2161
2205
2229
2269
2186
2113
2058
2000
2000
1925
1947
1925
1883
1920
1871
1904
1900
1779
1882
2300
3214
3157
2032
1535
1392
1318
1523
1718
1767
1727
1774
1778
1776
1811
1779
1814
1808
1787
1838
1787
1808
1798
1767
1805
1773
1808
1808
1807
1876
1856
1902
1904
1907
1933
1876
1883
1885
1845
1872
1831
1872
1857
1825
1863
1817
1872
1856
1835
1866
1838
1850
1840
1830
1856
1807
1839
1851
1886
1920
1924
2003
2000
1936
1899
1809
1825
1786
1739
1767
1710
1744
1737
1721
1759
1712
1680
1712
2089
2973
3166
2028
1374
1225
1223
1455
1658
1663
1650
1695
1667
1716
1723
1715
1757
1723
1767
1765
1746
1789
1743
1771
1757
1744
1791
1749
1808
1806
1805
1872
1837
1889
1872
1840
1867
1823
1839
1822
1818
1857
1808
1845
1834
1813
1856
1822
1853
1837
1828
1866
1836
1845
1827
1817
1850
1817
1906
1931
1921
2005
1991
1997
1926
1837
1837
1750
1750
1739
1712
1738
1690
1727
1715
1707
1705
1591
1840
2523
3452
2683
1522
1197
1194
1487
1681
1622
1678
1673
1673
1713
1669
1724
1722
1714
1758
1742
1779
1776
1760
1809
1758
1799
1786
1771
1810
1787
1855
1873
1865
1914
1872
1893
1865
1842
1873
1819
1849
1841
1835
1866
1826
1863
1857
1840
1882
1835
1871
1863
1845
1874
1829
1851
1831
1809
1873
1887
1936
1936
1989
2041
1947
1920
1840
1776
1779
1705
1730
1703
1682
1717
1666
1707
1692
1627
1648
1920
2768
3276
2150
1429
1185
1283
1559
1620
1646
1622
1665
1671
1679
1702
1676
1724
1723
1719
1770
1728
1774
1753
1739
1773
1745
1781
1766
1782
1833
1819
1885
1885
1886
1918
1862
1888
1856
1840
1872
1824
1870
1857
1844
1872
1833
1875
1854
1840
1872
1834
1872
1846
1833
1861
1812
1858
1881
1907
1943
1945
2031
2029
1973
1939
1829
1840
1805
1778
1804
1744
1775
1751
1744
1782
1719
1658
1712
2169
3106
2859
1877
1503
1381
1405
1619
1725
1713
1715
1773
1743
1781
1778
1787
1829
1805
1840
1822
1835
1869
1809
1843
1829
1824
1869
1854
1911
1934
1958
2002
1970
2000
1978
1968
1973
1926
1957
1936
1922
1951
1927
1967
1951
1933
1967
1927
1957
1936
1929
1939
1907
1951
1921
1930
2000
1964
2061
2076
2098
2099
1991
1970
1899
1863
1871
1808
1851
1834
1819
1843
1799
1827
1744
1748
2121
2882
3121
2170
1579
1501
1334
1495
1707
1758
1795
1774
1835
1825
1824
1858
1848
1887
1868
1867
1915
1879
1889
1861
1858
1904
1867
1927
1933
1951
2003
1978
2032
2019
2005
2005
1958
1984
1958
1951
1993
1938
1981
1958
1963
1985
1931
1975
1970
1953
1977
1941
1967
1953
1983
2031
1997
2097
2112
2118
2096
1974
1948
1902
1855
1857
1797
1829
1797
1790
1821
1774
1776
1679
1815
2416
3224
2802
1778
1417
1331
1243
1531
1651
1665
1690
1651
1703
1697
1702
1738
1703
1744
1711
1709
1743
1690
1723
1686
1678
1702
1668
1717
1695
1726
1779
1744
1794
1772
1754
1771
1714
1746
1700
1703
1719
1669
1713
1680
1677
1707
1664
1703
1664
1664
1683
1630
1685
1697
1718
1746
1746
1825
1789
1722
1684
1585
1585
1523
1504
1524
1463
1495
1456
1456
1486
1412
1365
1502
2134
3021
2505
1429
1041
905
1072
1308
1413
1391
1406
1445
1415
1466
1451
1479
1523
1488
1534
1521
1531
1575
1517
1535
1519
1535
1583
1535
1596
1600
1630
1662
1647
1710
1670
1653
1686
1634
1667
1639
1641
1669
1648
1685
1669
1691
1719
1673
1723
1685
1712
1776
1766
1811
1840
1897
1931
1840
1835
1728
1685
1682
1628
1658
1615
1616
1633
1600
1642
1605
1504
1559
1967
2960
3216
1970
1339
1115
1194
1461
1595
1618
1593
1660
1657
1663
1711
1675
1739
1727
1744
1776
1733
1782
1749
1747
1776
1743
1808
1776
1792
1840
1837
1904
1900
1904
1930
1889
1908
1876
1879
1904
1863
1901
1875
1883
1920
1895
1936
1905
1909
1933
1916
2003
2001
2007
2092
2095
2112
2021
1965
1921
1850
1851
1807
1809
1810
1776
1802
1770
1775
1776
1617
1806
2405
3440
2867
1697
1381
1226
1428
1674
1664
1705
1676
1701
1743
1710
1758
1735
1749
1789
1763
1806
1782
1786
1808
1761
1795
1773
1782
1815
1792
1860
1870
1902
1919
1898
1931
1882
1891
1889
1836
1898
1860
1856
1900
1865
1902
1895
1899
1904
1879
1937
1933
1981
2006
2014
2117
2080
2031
1991
1895
1890
1854
1834
1840
1813
1834
1792
1808
1824
1761
1695
1741
2258
3282
2901
1872
1472
1328
1505
1686
1746
1728
1758
1770
1772
1875
1863
1883
1931
1899
1936
1920
1921
1939
1908
1941
1915
1927
1947
1911
1994
1977
2018
2076
2029
2069
2043
2016
2023
1991
2017
1998
2021
2031
1993
2047
2003
2000
2032
1982
2016
1999
1987
2000
1997
2067
2033
2085
2134
2118
2155
2045
2000
1997
1907
1920
1893
1887
1898
1853
1890
1860
1868
1807
1750
2183
3049
3259
2198
1621
1517
1470
1710
1818
1805
1856
1840
1872
1893
1872
1941
1905
1919
1962
1925
1970
1941
1936
1945
1915
1958
1923
1957
1984
1973
2075
2041
2069
2109
2038
2088
2032
2013
2019
2000
2036
2000
2017
2033
2001
2065
2017
2027
2064
1995
2045
2023
1998
2007
1984
2047
2041
2066
2128
2125
2191
2099
2022
1995
1904
1924
1883
1857
1869
1825
1862
1839
1847
1836
1711
1943
2503
3387
2791
1777
1535
1383
1393
1695
1771
1821
1803
1829
1869
1831
1903
1871
1883
1909
1878
1920
1878
1885
1895
1846
1893
1854
1887
1909
1875
1953
1967
1999
2013
1987
2039
1979
1975
1985
1934
1984
1951
1957
1968
1930
1973
1938
1951
1958
1914
1953
1910
1907
1920
1881
1950
1945
1958
2014
2021
2089
1980
1904
1862
1789
1791
1719
1731
1732
1695
1744
1703
1703
1694
1584
1807
2372
3276
2730
1599
1303
1152
1265
1535
1610
1660
1635
1667
1687
1679
1712
1677
1707
1734
1706
1745
1712
1726
1728
1683
1723
1689
1722
1739
1723
1792
1790
1826
1850
1821
1855
1802
1815
1826
1779
1815
1783
1808
1822
1793
1846
1810
1819
1839
1799
1841
1817
1824
1835
1786
1827
1798
1863
1901
1869
1969
1971
1981
1937
1815
1829
1758
1730
1731
1691
1728
1680
1706
1712
1675
1693
1610
1823
2491
3230
2521
1491
1230
1164
1360
1623
1625
1647
1663
1655
1712
1686
1699
1722
1712
1756
1725
1750
1750
1706
1747
1717
1728
1749
1714
1761
1740
1786
1824
1808
1864
1831
1838
1840
1792
1817
1778
1787
1797
1762
1820
1792
1812
1823
1785
1831
1783
1803
1811
1768
1814
1753
1777
1791
1762
1797
1749
1789
1853
1838
1895
1907
1959
1941
1854
1834
1750
1747
1741
1690
1723
1681
1700
1710
1680
1723
1628
1669
2031
2825
3015
1911
1395
1275
1287
1625
1685
1712
1728
1710
1770
1733
1761
1775
1759
1806
1764
1792
1808
1774
1820
1781
1789
1810
1791
1847
1814
1850
1890
1889
1948
1922
1951
1950
1901
1925
1885
1904
1904
1870
1903
1879
1914
1936
1901
1942
1916
1935
1936
1910
1943
1911
1931
1936
1897
1947
1919
1979
2017
2000
2096
2091
2127
2083
1984
1987
1914
1893
1891
1857
1904
1849
1863
1869
1847
1862
1802
2066
2736
3337
2537
1661
1514
1404
1486
1771
1807
1834
1860
1862
1926
1872
1922
1933
1891
1937
1916
1927
1946
1897
1936
1897
1927
1934
1906
1961
1945
1984
2016
2002
2065
2016
2027
2014
1968
2001
1960
1959
1968
1946
1984
1949
1971
1984
1954
2007
1950
1973
1983
1934
1984
1935
1947
1945
1911
1978
1982
2001
2063
2086
2146
2064
2007
1947
1876
1878
1815
1827
1834
1775
1811
1769
1807
1795
1686
1842
2274
3138
3023
1889
1429
1280
1245
1495
1662
1725
1690
1727
1737
1729
1782
1758
1789
1785
1767
1803
1766
1785
1782
1746
1794
1742
1773
1779
1763
1840
1829
1872
1885
1861
1904
1846
1862
1858
1820
1871
1823
1841
1839
1809
1857
1808
1835
1839
1803
1852
1811
1829
1812
1779
1812
1805
1873
1869
1845
1959
1955
1958
1899
1795
1787
1712
1711
1694
1653
1685
1629
1650
1649
1618
1623
1573
1903
2663
3205
2269
1370
1201
1123
1330
1598
1573
1615
1631
1613
1678
1631
1669
1680
1675
1728
1681
1710
1713
1689
1728
1674
1697
1698
1667
1728
1706
1755
1781
1777
1823
1786
1802
1792
1755
1805
1744
1781
1776
1748
1808
1754
1789
1792
1786
1824
1778
1797
1793
1771
1808
1758
1773
1777
1783
1867
1832
1876
1929
1927
1935
1823
1784
1738
1679
1705
1637
1661
1647
1616
1664
1617
1641
1573
1600
2059
2857
2985
1838
1244
1141
1146
1488
1599
1587
1639
1614
1655
1666
1648
1701
1664
1706
1710
1671
1732
1682
1716
1715
1694
1741
1708
1733
1736
1733
1801
1767
1824
1825
1804
1844
1803
1821
1803
1779
1825
1779
1811
1813
1794
1829
1787
1822
1827
1806
1831
1791
1808
1818
1791
1818
1799
1869
1877
1871
1978
1971
1982
1917
1825
1828
1769
1765
1754
1726
1749
1697
1725
1726
1702
1682
1623
1945
2755
3183
2174
1447
1325
1279
1524
1712
1669
1709
1728
1731
1779
1753
1797
1793
1783
1835
1798
1828
1838
1818
1858
1809
1846
1840
1837
1895
1873
1926
1939
1948
1999
1950
1973
1953
1929
1968
1920
1958
1951
1936
1971
1939
1974
1964
1942
1986
1939
1969
1968
1950
1987
1943
1982
2006
2021
2071
2071
2165
2178
2097
2096
1987
1982
1943
1895
1935
1891
1901
1887
1872
1930
1861
1833
1951
2476
3454
2941
1936
1591
1452
1455
1669
1862
1875
1860
1913
1895
1936
1938
1936
1988
1954
1983
1986
1968
2000
1946
1968
1971
1954
1998
1959
2013
2034
2047
2098
2075
2112
2096
2063
2082
2022
2045
2029
2003
2058
2007
2032
2018
2005
2055
1983
2002
1997
1982
2018
1947
1978
2000
2017
2059
2058
2117
2134
2064
2018
1913
1899
1843
1792
1815
1762
1781
1774
1749
1779
1722
1663
1760
2250
3211
3067
1911
1379
1226
1250
1495
1669
1655
1661
1712
1675
1728
1715
1710
1765
1719
1773
1745
1718
1760
1707
1735
1727
1712
1753
1699
1745
1763
1776
1835
1814
1852
1836
1811
1846
1787
1808
1798
1774
1817
1773
1798
1787
1775
1813
1771
1793
1783
1771
1798
1748
1777
1787
1811
1850
1843
1918
1933
1868
1830
1729
1731
1680
1634
1663
1613
1638
1615
1613
1652
1595
1535
1619
2079
3008
2956
1791
1246
1104
1220
1477
1613
1590
1598
1654
1616
1677
1673
1673
1714
1693
1731
1722
1702
1733
1699
1735
1725
1714
1761
1712
1761
1773
1775
1846
1823
1859
1853
1821
1856
1807
1831
1815
1803
1841
1808
1857
1841
1833
1871
1821
1856
1854
1838
1866
1815
1856
1851
1875
1936
1897
1993
2010
1997
1984
1870
1863
1811
1767
1797
1744
1771
1742
1734
1770
1727
1733
1649
1823
2529
3353
2615
1648
1358
1312
1495
1712
1710
1707
1755
1731
1782
1787
1785
1827
1796
1845
1819
1809
1839
1801
1839
1805
1797
1839
1799
1840
1835
1853
1925
1903
1947
1929
1923
1947
1885
1914
1887
1883
1922
1881
1921
1906
1907
1942
1901
1933
1904
1886
1920
1879
1904
1881
1876
1963
1939
1984
2010
2045
2096
1987
1950
1890
1858
1859
1799
1831
1808
1791
1821
1782
1822
1776
1706
1925
2548
3449
2678
1712
1487
1325
1495
1727
1762
1794
1776
1841
1837
1825
1874
1857
1901
1892
1872
1930
1883
1933
1903
1890
1922
1877
1934
1926
1921
1981
1983
2034
2026
2005
2036
1971
1993
1969
1968
1998
1952
1969
1966
1971
2000
1951
1971
1964
1981
1983
1939
1986
1951
1947
2032
1999
2032
2066
2117
2145
2034
2010
1920
1877
1883
1813
1859
1817
1792
1827
1776
1810
1761
1665
1905
2496
3425
2752
1732
1462
1269
1333
1593
1691
1730
1699
1773
1742
1744
1776
1734
1797
1771
1755
1789
1730
1776
1744
1719
1757
1703
1744
1734
1746
1806
1782
1867
1851
1837
1858
1809
1840
1797
1776
1825
1770
1807
1783
1769
1795
1750
1802
1776
1760
1786
1742
1774
1744
1744
1803
1783
1829
1847
1872
1937
1840
1808
1718
1673
1668
1588
1620
1587
1572
1615
1557
1605
1578
1473
1583
1983
2912
2928
1762
1250
1065
1136
1397
1511
1561
1519
1589
1582
1582
1619
1586
1631
1617
1631
1659
1620
1655
1632
1629
1650
1600
1648
1631
1633
1696
1680
1755
1757
1767
1786
1736
1759
1722
1715
1744
1699
1744
1717
1726
1765
1712
1756
1740
1744
1776
1728
1761
1744
1728
1754
1717
1791
1821
1825
1887
1886
1973
1896
1826
1809
1717
1735
1690
1680
1702
1650
1697
1680
1683
1712
1607
1669
2001
2825
3166
1991
1394
1230
1266
1598
1661
1702
1694
1723
1769
1735
1776
1772
1779
1824
1776
1831
1810
1818
1840
1788
1839
1814
1816
1842
1807
1870
1883
1904
1950
1925
1965
1933
1936
1936
1885
1936
1907
1902
1938
1899
1942
1936
1935
1954
1904
1948
1917
1907
1937
1873
1913
1893
1903
1968
1962
2007
2029
2078
2096
1989
1980
1903
1866
1884
1814
1832
1822
1806
1823
1807
1850
1779
1744
1946
2556
3462
2607
1683
1496
1353
1615
1796
1799
1834
1838
1887
1859
1884
1920
1876
1945
1914
1919
1970
1915
1946
1943
1936
1937
1925
1974
1943
1991
2031
1987
2095
2071
2061
2109
2037
2054
2038
2023
2037
2018
2070
2022
2059
2064
2009
2083
2047
2032
2083
2032
2066
2037
2029
2034
2027
2110
2086
2119
2203
2183
2225
2143
2074
2065
1968
1967
1942
1939
1936
1904
1948
1914
1920
1891
1787
2092
2749
3502
2687
1747
1580
1422
1490
1776
1841
1871
1837
1883
1926
1872
1953
1922
1919
1970
1905
1939
1935
1922
1926
1893
1925
1883
1902
1940
1904
2000
1995
1990
2047
2006
2038
2009
1989
2002
1967
1987
1945
1970
1984
1917
1984
1952
1936
1979
1927
1944
1922
1919
1922
1893
1918
1883
1951
1981
1930
2046
2058
2044
2018
1897
1867
1818
1778
1774
1731
1763
1713
1735
1757
1703
1731
1623
1799
2432
3223
2711
1647
1309
1189
1278
1606
1639
1652
1685
1651
1729
1706
1725
1769
1744
1792
1747
1760
1776
1738
1776
1728
1728
1744
1719
1775
1754
1787
1843
1824
1879
1854
1856
1872
1822
1855
1808
1817
1842
1792
1840
1813
1823
1854
1807
1850
1808
1818
1835
1777
1814
1791
1787
1808
1817
1895
1864
1919
1971
1953
1946
1827
1771
1770
1693
1726
1680
1679
1708
1649
1698
1675
1663
1603
1667
2225
3083
2896
1747
1260
1190
1289
1588
1676
1626
1683
1684
1699
1726
1707
1758
1728
1758
1774
1733
1779
1754
1773
1767
1723
1778
1743
1769
1808
1789
1858
1855
1879
1905
1871
1906
1856
1859
1863
1826
1871
1840
1844
1870
1840
1884
1854
1858
1883
1839
1877
1837
1840
1860
1822
1857
1827
1869
1931
1904
1981
1985
2030
2005
1887
1883
1810
1806
1793
1754
1787
1745
1746
1775
1738
1776
1657
1726
2166
3005
3088
1895
1407
1309
1344
1680
1719
1745
1777
1759
1803
1799
1809
1847
1815
1855
1843
1865
1877
1840
1879
1840
1851
1875
1858
1908
1888
1927
1981
1968
2036
2014
2017
2029
1982
2001
1972
1964
1989
1968
2015
1987
2000
2015
1993
2045
1994
2007
2019
1971
2037
1993
1992
2013
2007
2106
2060
2114
2179
2182
2180
2067
2031
2016
1936
1959
1920
1922
1925
1888
1936
1890
1897
1840
1855
2323
3155
3280
2203
1584
1495
1351
1569
1807
1808
1856
1837
1861
1886
1852
1910
1873
1891
1910
1877
1934
1899
1882
1881
1821
1882
1857
1875
1887
1883
1953
1945
1969
1999
1962
1994
1943
1939
1957
1910
1936
1915
1919
1939
1899
1940
1901
1922
1936
1872
1926
1881
1873
1885
1846
1917
1917
1936
1974
1987
2070
1994
1936
1878
1795
1804
1739
1741
1742
1686
1728
1695
1702
1725
1612
1643
1947
2763
3327
2222
1426
1209
1140
1404
1582
1649
1616
1641
1648
1635
1710
1671
1694
1722
1686
1744
1708
1715
1727
1675
1718
1665
1696
1710
1677
1745
1739
1785
1817
1806
1846
1801
1813
1819
1761
1806
1766
1793
1808
1769
1819
1791
1809
1821
1793
1837
1791
1810
1819
1782
1808
1771
1832
1890
1849
1927
1936
1978
1952
1839
1820
1748
1743
1732
1683
1712
1661
1681
1699
1670
1712
1600
1645
2025
2845
3202
1989
1347
1194
1202
1535
1627
1655
1675
1653
1715
1694
1711
1744
1725
1776
1754
1776
1799
1763
1803
1754
1765
1777
1739
1791
1766
1806
1837
1838
1904
1878
1897
1899
1860
1887
1838
1852
1871
1821
1875
1842
1869
1877
1841
1889
1845
1855
1856
1829
1867
1822
1845
1847
1835
1934
1911
1943
1997
2003
2032
1923
1872
1844
1795
1820
1765
1775
1769
1738
1774
1727
1759
1721
1657
1936
2625
3382
2429
1535
1376
1277
1566
1735
1712
1770
1744
1783
1813
1782
1836
1813
1845
1859
1824
1864
1830
1851
1857
1808
1861
1831
1844
1863
1841
1906
1904
1956
1978
1936
1982
1932
1924
1934
1897
1947
1879
1907
1900
1883
1924
1895
1905
1913
1886
1917
1874
1887
1891
1852
1906
1892
1949
1954
1981
2057
2029
1990
1919
1837
1840
1761
1767
1767
1715
1739
1701
1714
1718
1677
1638
1685
2230
3089
2799
1776
1329
1238
1182
1406
1621
1593
1617
1632
1616
1671
1642
1664
1688
1661
1711
1669
1695
1689
1653
1683
1629
1655
1677
1648
1710
1695
1740
1777
1757
1817
1760
1781
1773
1719
1755
1698
1715
1726
1692
1748
1697
1722
1735
1697
1748
1685
1699
1718
1668
1696
1670
1718
1757
1715
1819
1822
1840
1799
1679
1657
1592
1573
1553
1505
1535
1495
1518
1514
1486
1507
1375
1514
2080
2913
2810
1587
1136
1014
981
1332
1423
1454
1469
1451
1495
1476
1517
1535
1503
1569
1534
1579
1579
1530
1584
1520
1532
1535
1515
1573
1535
1584
1615
1612
1682
1646
1667
1668
1631
1650
1609
1633
1639
1600
1651
1609
1643
1648
1622
1680
1638
1666
1670
1630
1680
1641
1667
1701
1717
1790
1754
1837
1898
1856
1838
1728
1725
1709
1643
1694
1655
1675
1680
1647
1710
1675
1655
1621
1804
2549
3287
2477
1535
1266
1245
1455
1682
1728
1707
1774
1758
1805
1807
1812
1873
1845
1893
1902
1878
1939
1900
1929
1934
1902
1935
1914
1967
1985
1989
2046
2033
2076
2075
2031
2065
2001
2006
2011
1981
2028
1978
2001
2017
1981
2023
2000
2029
2032
1995
2035
1989
2022
2021
1993
2087
2083
2103
2160
2163
2203
2119
2082
2019
1955
1974
1929
1935
1919
1884
1925
1892
1916
1899
1759
1911
2423
3536
3213
1926
1526
1354
1501
1779
1807
1854
1812
1856
1863
1835
1904
1872
1921
1920
1890
1941
1892
1919
1908
1874
1933
1889
1919
1927
1919
2000
1979
2036
2058
2026
2075
2030
2031
2015
1975
2005
1973
2003
2000
1971
2016
1969
1998
2006
1979
2026
1983
1996
1993
1968
2018
1972
2045
2097
2047
2144
2149
2174
2123
1997
1991
1911
1909
1889
1855
1886
1837
1863
1862
1840
1863
1712
1877
2523
3668
3199
1854
1408
1357
1605
1840
1794
1822
1840
1842
1895
1840
1876
1895
1871
1935
1878
1926
1929
1899
1936
1894
1915
1904
1887
1949
1925
1983
2025
2021
2097
2025
2042
2032
1991
2018
1955
1979
1973
1965
2000
1950
1974
1970
1941
1990
1937
1968
1949
1903
1952
1903
1913
1922
1898
1979
1983
2002
2039
2059
2126
2042
1968
1915
1840
1850
1787
1799
1783
1744
1786
1744
1773
1759
1632
1744
2175
3182
3279
1953
1466
1270
1467
1723
1701
1745
1719
1747
1765
1748
1797
1776
1803
1810
1792
1839
1798
1824
1825
1790
1815
1776
1807
1814
1819
1903
1897
1945
1968
1948
2003
1933
1940
1926
1897
1927
1876
1897
1904
1884
1922
1872
1901
1892
1866
1906
1856
1889
1885
1853
1890
1840
1879
1914
1931
1984
1975
2042
2064
1989
1963
1851
1856
1824
1768
1798
1744
1765
1763
1737
1797
1718
1641
1767
2317
3381
2894
1781
1441
1280
1527
1697
1723
1719
1695
1763
1722
1767
1767
1747
1807
1765
1805
1810
1787
1830
1769
1779
1794
1775
1837
1812
1866
1902
1910
1990
1950
1973
1962
1907
1942
1882
1899
1895
1866
1916
1867
1895
1902
1863
1920
1856
1870
1873
1840
1885
1834
1859
1861
1829
1889
1904
1939
1961
1984
2075
2000
1973
1901
1815
1840
1764
1777
1767
1722
1764
1731
1759
1743
1617
1681
2001
2890
3243
2044
1535
1339
1365
1645
1681
1729
1689
1725
1744
1723
1778
1734
1776
1783
1760
1821
1775
1803
1791
1750
1806
1762
1795
1809
1799
1894
1884
1939
1961
1915
1947
1887
1878
1875
1854
1900
1841
1865
1872
1843
1894
1837
1867
1857
1818
1870
1808
1840
1840
1798
1839
1792
1826
1860
1868
1914
1920
1987
2005
1936
1920
1802
1805
1779
1735
1773
1714
1733
1735
1706
1754
1664
1603
1783
2434
3366
2559
1651
1433
1270
1535
1674
1701
1702
1694
1745
1712
1764
1776
1749
1818
1776
1818
1823
1781
1837
1788
1805
1816
1792
1863
1840
1889
1927
1936
2004
1966
1990
1968
1921
1946
1904
1931
1925
1899
1946
1896
1920
1915
1891
1936
1885
1893
1895
1861
1901
1862
1884
1883
1888
1979
1936
2000
2059
2037
2075
1945
1901
1862
1804
1844
1781
1797
1781
1744
1799
1758
1755
1633
1694
2275
3216
2935
1823
1473
1374
1459
1718
1733
1697
1758
1724
1770
1774
1751
1811
1766
1806
1815
1791
1850
1787
1790
1795
1776
1826
1795
1840
1872
1871
1955
1938
1974
1968
1914
1937
1865
1885
1872
1846
1890
1841
1879
1863
1831
1873
1825
1854
1846
1808
1856
1802
1839
1831
1791
1872
1870
1893
1934
1967
2033
1936
1889
1838
1770
1781
1719
1740
1723
1697
1744
1681
1731
1700
1533
1703
2213
3098
2626
1680
1489
1331
1446
1651
1671
1712
1661
1740
1760
1725
1806
1773
1803
1825
1808
1859
1837
1851
1840
1823
1881
1831
1894
1917
1915
2013
1984
2026
2059
2015
2033
1991
1993
1984
1973
2026
1963
2005
2004
1952
2033
1972
1984
2015
1968
1998
1967
1990
2003
2030
2059
2047
2149
2178
2128
2129
2018
1963
1964
1906
1927
1889
1895
1884
1873
1904
1848
1808
1750
1983
2826
3218
2358
1737
1586
1440
1495
1763
1824
1814
1866
1827
1898
1889
1840
1941
1891
1909
1935
1889
1927
1901
1911
1878
1869
1920
1873
1951
1979
1954
2065
2030
2039
2061
2003
2017
1984
2001
1981
1961
2015
1951
1995
1983
1938
2006
1949
1965
1970
1933
1972
1946
1994
1986
2014
2119
2097
2121
2063
1948
1951
1862
1855
1858
1808
1824
1786
1808
1794
1778
1741
1645
1988
2759
3280
2416
1614
1441
1303
1374
1655
1702
1729
1725
1723
1790
1737
1784
1786
1754
1823
1765
1791
1809
1760
1776
1732
1747
1745
1745
1799
1771
1840
1882
1883
1936
1911
1930
1917
1871
1909
1856
1887
1873
1842
1891
1840
1875
1876
1850
1899
1841
1872
1889
1893
1954
1909
1999
2021
1983
1999
1872
1840
1808
1747
1762
1706
1728
1714
1686
1718
1664
1673
1577
1648
2279
3199
2891
1751
1301
1207
1255
1535
1630
1589
1655
1637
1682
1685
1660
1728
1699
1731
1738
1714
1769
1710
1729
1727
1690
1734
1701
1728
1742
1735
1818
1797
1854
1860
1827
1872
1802
1819
1823
1781
1827
1778
1812
1821
1780
1832
1796
1805
1811
1789
1834
1794
1849
1874
1848
1938
1939
1968
1911
1814
1811
1744
1742
1713
1671
1718
1654
1678
1681
1649
1681
1535
1645
2175
3127
2992
1777
1331
1216
1343
1627
1613
1633
1658
1649
1712
1669
1703
1728
1711
1776
1717
1744
1761
1731
1774
1728
1754
1745
1727
1783
1758
1806
1843
1841
1909
1865
1889
1889
1829
1874
1805
1842
1854
1830
1872
1831
1862
1866
1840
1898
1843
1859
1872
1834
1882
1839
1904
1935
1900
1989
1971
2015
1979
1885
1887
1819
1801
1791
1751
1792
1731
1755
1763
1734
1767
1632
1713
2196
3101
2982
1867
1478
1343
1403
1680
1687
1726
1741
1730
1795
1750
1786
1805
1789
1846
1808
1840
1841
1808
1856
1809
1839
1845
1815
1880
1859
1894
1935
1942
2011
1978
2000
2000
1965
2006
1951
1980
1981
1959
2012
1969
1998
2006
1975
2035
1995
2013
2015
1987
2035
1975
2000
1999
1967
2009
1996
2073
2077
2096
2196
2149
2128
2064
1979
2004
1927
1936
1926
1881
1926
1879
1904
1904
1859
1840
1914
2463
3358
2887
1923
1531
1427
1450
1693
1857
1810
1842
1870
1854
1899
1871
1910
1919
1882
1945
1887
1921
1932
1876
1920
1876
1887
1902
1876
1937
1930
1968
2000
2001
2064
2001
2015
1997
1967
2002
1941
1977
1971
1943
1996
1942
1983
1985
1952
2000
1941
1962
1963
1929
1968
1919
1939
1933
1885
1934
1929
1989
1990
2000
2086
2045
2007
1934
1856
1872
1777
1786
1779
1731
1774
1728
1750
1754
1703
1703
1794
2368
3210
2737
1728
1310
1204
1277
1520
1683
1633
1667
1684
1672
1721
1682
1715
1739
1697
1746
1712
1739
1742
1698
1739
1695
1713
1715
1692
1747
1733
1774
1811
1796
1852
1817
1821
1815
1781
1818
1770
1790
1807
1765
1820
1780
1815
1825
1781
1831
1791
1813
1820
1787
1826
1794
1811
1808
1774
1822
1775
1791
1790
1759
1829
1834
1875
1901
1935
2007
1937
1911
1838
1756
1761
1708
1723
1719
1680
1733
1676
1710
1716
1642
1653
1847
2559
3191
2259
1513
1239
1214
1502
1637
1691
1658
1708
1724
1702
1760
1700
1735
1764
1731
1797
1755
1777
1792
1759
1803
1746
1776
1776
1745
1818
1793
1845
1873
1854
1924
1872
1871
1872
1831
1879
1827
1855
1866
1828
1872
1845
1869
1872
1841
1904
1852
1869
1877
1838
1885
1844
1859
1866
1839
1874
1827
1846
1867
1822
1874
1831
1883
1939
1925
1995
2002
2032
2003
1914
1906
1822
1814
1808
1754
1808
1754
1776
1790
1765
1805
1681
1740
2128
2924
3034
1933
1489
1343
1348
1674
1707
1738
1765
1744
1802
1771
1792
1811
1787
1840
1791
1832
1841
1805
1853
1806
1833
1840
1803
1855
1814
1863
1893
1883
1955
1930
1955
1953
1919
1955
1901
1919
1907
1887
1936
1898
1919
1929
1904
1957
1905
1927
1937
1905
1954
1904
1931
1925
1891
1943
1904
1919
1930
1902
1955
1907
1926
1936
1945
2029
1991
2070
2117
2085
2087
1952
1941
1918
1857
1890
1850
1874
1872
1841
1899
1850
1855
1831
1968
2634
3293
2627
1769
1522
1450
1450
1725
1831
1798
1865
1840
1875
1893
1856
1923
1888
1914
1925
1904
1948
1921
1935
1918
1887
1942
1904
1940
1958
1927
2001
1981
2029
2029
1987
2037
1978
2001
1981
1936
1995
1946
1968
1976
1955
2000
1959
1968
1983
1959
1997
1943
1968
1962
1932
1975
1923
1942
1945
1907
1949
1900
1954
1992
1971
2058
2047
2096
2072
1945
1935
1851
1840
1823
1773
1810
1763
1776
1785
1743
1779
1681
1777
2217
2994
3057
1929
1419
1313
1211
1507
1643
1700
1702
1679
1742
1706
1730
1742
1727
1776
1744
1771
1770
1733
1792
1734
1750
1759
1722
1794
1745
1775
1796
1795
1860
1829
1861
1856
1808
1844
1788
1797
1809
1782
1824
1787
1807
1808
1778
1839
1793
1808
1809
1777
1825
1775
1803
1808
1759
1807
1770
1776
1781
1767
1858
1847
1869
1929
1936
1975
1874
1828
1783
1722
1753
1683
1697
1699
1651
1712
1663
1693
1690
1598
1786
2326
3161
2661
1599
1309
1143
1325
1605
1633
1677
1664
1705
1721
1705
1758
1725
1760
1777
1746
1795
1769
1795
1797
1753
1808
1763
1789
1806
1777
1840
1819
1856
1876
1867
1904
1854
1872
1858
1822
1871
1825
1853
1851
1817
1874
1840
1851
1866
1830
1887
1853
1855
1861
1840
1888
1826
1846
1859
1825
1863
1821
1840
1840
1819
1915
1911
1936
1984
1987
2029
1933
1887
1849
1785
1808
1757
1770
1769
1728
1773
1739
1757
1747
1659
1830
2358
3248
2713
1664
1410
1260
1447
1696
1691
1743
1719
1760
1776
1747
1803
1764
1797
1806
1786
1845
1797
1836
1831
1797
1846
1794
1819
1827
1818
1876
1856
1899
1919
1894
1950
1902
1920
1904
1865
1911
1874
1891
1904
1867
1907
1875
1898
1892
1858
1911
1871
1883
1903
1857
1903
1863
1877
1874
1840
1886
1843
1874
1889
1885
1971
1939
1985
2035
2028
2035
1926
1903
1872
1807
1839
1794
1805
1797
1773
1821
1777
1794
1749
1763
2211
3015
3054
1984
1466
1408
1348
1635
1766
1745
1808
1778
1815
1825
1808
1881
1840
1874
1890
1855
1899
1871
1904
1901
1870
1904
1867
1901
1901
1886
1966
1955
1988
2013
1975
2019
1958
1975
1967
1936
1986
1941
1977
1972
1950
2000
1943
1984
1991
1954
2002
1955
1978
1982
1941
1983
1930
1951
1966
1936
1973
1957
2018
2017
2014
2125
2117
2111
2031
1936
1950
1877
1875
1869
1831
1862
1810
1835
1839
1819
1827
1747
2032
2743
3345
2509
1600
1455
1356
1380
1710
1755
1787
1808
1788
1843
1809
1849
1850
1835
1893
1847
1873
1871
1853
1874
1808
1838
1841
1805
1862
1835
1875
1910
1890
1962
1923
1931
1925
1877
1916
1861
1884
1878
1849
1893
1840
1872
1872
1830
1878
1831
1842
1834
1818
1867
1807
1827
1833
1802
1840
1791
1864
1888
1857
1951
1941
1971
1936
1819
1822
1738
1727
1712
1675
1712
1654
1680
1673
1637
1680
1584
1716
2231
3024
2827
1669
1274
1167
1167
1503
1585
1621
1636
1619
1689
1648
1686
1699
1663
1733
1694
1726
1735
1711
1750
1696
1717
1735
1696
1749
1712
1744
1783
1775
1844
1814
1839
1838
1795
1840
1792
1806
1824
1782
1836
1794
1824
1827
1792
1844
1808
1829
1826
1807
1851
1789
1813
1826
1785
1833
1798
1821
1866
1875
1930
1926
1989
2008
1936
1919
1829
1810
1779
1734
1781
1732
1747
1751
1727
1776
1726
1682
1774
2243
3181
2895
1779
1362
1216
1360
1623
1713
1729
1719
1781
1744
1776
1792
1766
1828
1792
1825
1836
1808
1854
1819
1835
1833
1805
1855
1810
1846
1854
1839
1917
1892
1937
1933
1908
1936
1882
1888
1892
1865
1906
1861
1887
1901
1868
1911
1869
1887
1897
1870
1910
1872
1891
1887
1849
1901
1855
1897
1946
1936
1986
1987
2062
2059
1965
1956
1851
1841
1828
1788
1822
1758
1776
1781
1750
1808
1743
1703
1869
2465
3361
2597
1621
1378
1254
1509
1693
1744
1748
1735
1806
1782
1810
1801
1757
1844
1808
1825
1850
1825
1872
1824
1847
1840
1826
1863
1808
1861
1878
1859
1946
1914
1935
1955
1926
1943
1915
1919
1887
1894
1936
1881
1935
1934
1903
1963
1911
1922
1948
1916
1954
1915
1934
1927
1914
1946
1906
1996
2009
1982
2111
2105
2111
2063
1966
1949
1898
1891
1874
1854
1886
1808
1869
1872
1831
1871
1765
1977
2659
3374
2653
1695
1488
1382
1442
1749
1779
1836
1845
1813
1905
1872
1887
1924
1905
1943
1894
1926
1931
1911
1956
1884
1920
1922
1895
1969
1923
1948
1997
1984
2032
2017
2047
2022
1985
2020
1949
1991
1991
1951
2026
1968
1983
2004
1968
2001
1963
1981
1967
1955
1999
1933
1968
1973
1953
2055
1995
2033
2110
2102
2089
1954
1904
1840
1757
1788
1728
1728
1725
1715
1748
1706
1741
1645
1601
2087
2869
3293
2224
1459
1374
1231
1459
1689
1704
1744
1712
1759
1759
1739
1814
1759
1795
1818
1772
1819
1777
1783
1783
1746
1781
1735
1781
1777
1767
1849
1813
1872
1905
1861
1913
1863
1859
1856
1827
1856
1816
1851
1840
1827
1877
1817
1851
1863
1814
1859
1830
1865
1869
1825
1873
1831
1895
1925
1899
1975
1978
2014
1971
1873
1858
1776
1756
1751
1704
1740
1683
1713
1730
1691
1738
1613
1699
2145
2965
3119
1890
1333
1216
1193
1535
1616
1659
1651
1639
1714
1680
1711
1725
1713
1767
1735
1762
1773
1744
1795
1743
1756
1763
1737
1791
1755
1797
1813
1820
1887
1858
1886
1881
1840
1887
1830
1839
1837
1822
1872
1819
1855
1862
1829
1877
1820
1840
1841
1815
1872
1819
1843
1832
1804
1878
1879
1921
1938
1941
2018
1953
1904
1849
1782
1804
1741
1767
1749
1710
1749
1712
1730
1737
1650
1702
1969
2807
3286
2121
1442
1239
1264
1553
1653
1711
1677
1721
1745
1726
1776
1744
1786
1807
1783
1837
1802
1819
1821
1782
1827
1789
1808
1817
1795
1847
1838
1883
1904
1895
1938
1892
1914
1900
1856
1895
1857
1879
1879
1856
1907
1870
1895
1894
1846
1905
1858
1885
1890
1853
1903
1853
1873
1878
1895
1971
1926
1989
2060
2015
2009
1898
1873
1845
1783
1829
1773
1777
1781
1754
1797
1749
1770
1700
1813
2453
3277
2718
1705
1382
1333
1454
1691
1733
1712
1776
1749
1790
1808
1786
1841
1799
1838
1854
1821
1870
1818
1840
1852
1815
1857
1813
1845
1861
1856
1931
1914
1957
1968
1938
1971
1913
1937
1936
1898
1943
1904
1931
1936
1907
1949
1908
1943
1943
1917
1968
1915
1937
1942
1903
1959
1905
1961
1994
1968
2074
2082
2128
2085
1968
1961
1893
1890
1873
1837
1884
1814
1838
1851
1826
1861
1756
1840
2285
3113
3136
2011
1535
1421
1312
1611
1741
1782
1795
1781
1849
1825
1843
1851
1849
1907
1847
1879
1894
1861
1899
1837
1852
1862
1831
1883
1855
1906
1935
1911
1985
1965
1993
1987
1941
1987
1927
1962
1959
1925
1968
1929
1942
1952
1926
1975
1925
1962
1953
1917
1951
1899
1921
1931
1898
1977
1955
1990
2036
2039
2114
2000
1941
1893
1827
1841
1781
1792
1781
1752
1801
1744
1776
1766
1668
1825
2303
3187
2971
1824
1414
1265
1259
1526
1661
1715
1680
1726
1744
1721
1773
1744
1765
1735
1730
1804
1761
1792
1792
1731
1794
1762
1771
1769
1755
1827
1793
1856
1878
1866
1912
1868
1888
1882
1849
1869
1829
1853
1847
1822
1879
1831
1865
1877
1849
1886
1840
1858
1869
1840
1884
1819
1866
1908
1881
1955
1959
2015
1991
1904
1878
1793
1792
1766
1699
1754
1699
1712
1721
1684
1744
1664
1643
1856
2483
3365
2559
1552
1274
1145
1375
1584
1664
1667
1649
1718
1678
1718
1740
1712
1758
1727
1770
1774
1734
1792
1761
1777
1767
1728
1787
1739
1775
1793
1793
1867
1843
1882
1883
1850
1895
1829
1853
1856
1826
1865
1815
1847
1862
1837
1887
1845
1870
1871
1841
1892
1834
1852
1856
1814
1863
1835
1904
1932
1919
2006
1989
2014
1952
1853
1857
1777
1790
1776
1733
1776
1732
1767
1761
1737
1770
1663
1841
2459
3285
2726
1631
1341
1237
1392
1692
1680
1712
1738
1714
1773
1738
1774
1782
1770
1824
1783
1822
1817
1789
1840
1790
1808
1811
1777
1830
1792
1830
1855
1863
1926
1883
1923
1919
1872
1913
1856
1872
1872
1847
1885
1841
1873
1889
1857
1895
1837
1860
1870
1840
1877
1845
1870
1867
1838
1877
1829
1898
1942
1908
1991
1984
2023
1980
1877
1887
1808
1806
1791
1744
1785
1743
1765
1760
1734
1775
1664
1722
2117
2951
3136
1947
1443
1310
1310
1641
1699
1722
1732
1727
1791
1758
1792
1804
1770
1839
1797
1831
1843
1823
1868
1803
1826
1836
1803
1860
1815
1856
1872
1872
1954
1919
1946
1947
1903
1935
1879
1905
1904
1883
1926
1882
1906
1916
1891
1942
1891
1907
1920
1877
1920
1872
1894
1897
1861
1913
1869
1919
1965
1936
2007
2011
2080
2037
1937
1936
1856
1852
1824
1787
1825
1765
1792
1797
1759
1817
1744
1729
1982
2698
3360
2333
1580
1423
1299
1573
1705
1759
1774
1751
1806
1771
1813
1815
1806
1872
1840
1875
1879
1843
1906
1862
1875
1871
1849
1904
1865
1893
1922
1934
2001
1969
2002
2003
1967
1991
1941
1970
1969
1945
1984
1958
1977
1965
1950
1997
1937
1970
1990
1946
1990
1936
1963
1959
1913
1962
1939
2009
2015
2022
2122
2099
2095
2022
1937
1931
1858
1887
1861
1809
1858
1803
1824
1829
1808
1804
1743
2095
2829
3330
2426
1571
1443
1332
1405
1711
1750
1776
1796
1777
1835
1794
1840
1851
1825
1876
1840
1856
1853
1814
1870
1805
1829
1827
1797
1861
1822
1860
1893
1897
1965
1931
1958
1936
1898
1936
1872
1899
1899
1857
1904
1857
1888
1890
1863
1920
1859
1888
1877
1853
1901
1849
1857
1847
1830
1921
1895
1920
1970
1984
2042
1938
1882
1823
1782
1791
1723
1739
1719
1680
1729
1699
1727
1712
1614
1787
2238
3107
2928
1744
1329
1175
1215
1503
1621
1683
1644
1686
1699
1670
1733
1694
1730
1738
1719
1773
1728
1760
1750
1715
1766
1714
1743
1735
1712
1771
1761
1821
1831
1831
1883
1841
1840
1836
1806
1838
1803
1813
1808
1793
1848
1801
1829
1840
1802
1856
1808
1840
1840
1789
1829
1779
1808
1814
1819
1911
1872
1921
1958
1963
1980
1861
1825
1787
1729
1761
1710
1725
1718
1683
1729
1680
1718
1680
1631
1981
2718
3275
2224
1392
1280
1174
1472
1659
1645
1694
1670
1710
1729
1702
1762
1731
1776
1776
1765
1822
1770
1801
1795
1762
1815
1754
1791
1789
1778
1849
1826
1885
1904
1874
1935
1869
1878
1887
1844
1893
1846
1885
1869
1847
1906
1862
1887
1887
1856
1903
1856
1873
1882
1841
1899
1840
1868
1873
1899
1967
1925
2000
2037
1988
1982
1877
1863
1834
1787
1821
1760
1774
1775
1746
1798
1746
1749
1687
1812
2465
3295
2718
1677
1360
1311
1446
1709
1746
1715
1781
1750
1783
1808
1779
1840
1793
1840
1843
1822
1878
1827
1853
1840
1810
1865
1809
1839
1847
1838
1910
1904
1953
1963
1933
1968
1899
1925
1919
1891
1949
1904
1923
1933
1899
1950
1905
1936
1931
1886
1938
1901
1925
1917
1885
1926
1873
1902
1933
1952
2000
1983
2064
2087
2013
2002
1905
1903
1879
1823
1856
1806
1828
1831
1796
1851
1808
1786
1789
2047
2863
3251
2287
1582
1397
1351
1509
1759
1802
1777
1840
1823
1857
1872
1851
1910
1871
1907
1904
1861
1915
1882
1907
1902
1859
1917
1862
1904
1920
1913
1997
1962
2013
2007
1974
2015
1952
1977
1967
1933
1989
1934
1965
1978
1940
1987
1939
1970
1968
1948
1983
1922
1957
1955
1909
1991
1985
2023
2047
2074
2150
2063
2023
1961
1885
1893
1818
1840
1827
1787
1830
1776
1808
1819
1737
1745
1968
2735
3455
2505
1652
1391
1282
1375
1616
1754
1696
1743
1763
1730
1790
1749
1793
1797
1776
1820
1766
1802
1799
1761
1801
1738
1765
1763
1750
1811
1779
1841
1871
1849
1920
1872
1891
1885
1847
1875
1834
1863
1857
1823
1872
1835
1868
1865
1830
1874
1827
1857
1854
1825
1866
1810
1838
1839
1829
1904
1851
1904
1951
1953
1977
1866
1818
1787
1725
1749
1681
1698
1680
1655
1709
1658
1680
1648
1590
1887
2544
3254
2378
1425
1262
1115
1389
1619
1615
1661
1630
1678
1685
1676
1728
1678
1729
1747
1725
1775
1722
1747
1744
1711
1749
1703
1744
1741
1730
1811
1782
1845
1863
1852
1904
1855
1871
1852
1815
1856
1803
1847
1841
1816
1873
1827
1858
1855
1830
1872
1831
1850
1842
1819
1863
1798
1840
1839
1861
1931
1886
1945
2000
1980
1963
1841
1836
1807
1744
1763
1695
1727
1719
1686
1746
1686
1702
1652
1721
2290
3158
2896
1726
1308
1230
1315
1645
1687
1646
1737
1691
1726
1756
1734
1790
1767
1799
1799
1790
1840
1770
1822
1813
1770
1833
1782
1808
1822
1802
1872
1871
1922
1923
1915
1953
1877
1932
1901
1857
1925
1865
1890
1918
1885
1923
1889
1919
1901
1891
1933
1870
1921
1909
1870
1910
1866
1878
1897
1860
1943
1945
1972
2010
2047
2079
1959
1947
1895
1836
1868
1797
1807
1809
1776
1804
1775
1797
1783
1707
1840
2291
3248
2891
1771
1477
1314
1448
1728
1746
1779
1761
1804
1798
1799
1851
1808
1872
1860
1824
1904
1843
1854
1870
1819
1851
1840
1856
1842
1857
1915
1877
1962
1968
1947
2030
1962
1969
1969
1929
1951
1930
1957
1938
1939
1975
1915
1975
1968
1921
1991
1933
1950
1962
1925
1955
1930
1952
1939
1974
2039
1978
2091
2126
2095
2103
1974
1936
1927
1872
1883
1841
1851
1833
1828
1861
1807
1852
1779
1846
2389
3230
3063
1990
1525
1455
1350
1625
1780
1787
1839
1794
1849
1861
1819
1900
1847
1882
1906
1872
1904
1863
1904
1891
1863
1894
1851
1874
1903
1893
1963
1933
2000
2016
1981
2011
1954
1965
1955
1932
1982
1919
1940
1945
1917
1967
1909
1934
1926
1900
1957
1894
1917
1914
1872
1915
1866
1931
1950
1927
1985
1990
2073
2017
1931
1904
1807
1808
1771
1731
1770
1717
1741
1744
1707
1749
1669
1653
1900
2580
3359
2428
1518
1300
1158
1377
1577
1650
1655
1638
1713
1678
1715
1716
1701
1758
1713
1756
1736
1714
1771
1710
1744
1727
1698
1743
1691
1744
1763
1770
1850
1823
1862
1862
1838
1870
1803
1834
1819
1793
1850
1805
1837
1826
1803
1853
1797
1840
1835
1797
1847
1801
1819
1814
1783
1833
1808
1887
1884
1887
1982
1969
1970
1886
1797
1811
1728
1733
1726
1682
1714
1666
1701
1696
1669
1679
1594
1886
2608
3260
2384
1438
1258
1178
1398
1655
1622
1667
1679
1661
1719
1675
1729
1746
1729
1776
1735
1776
1776
1744
1782
1742
1768
1763
1733
1776
1735
1792
1817
1838
1905
1862
1891
1877
1852
1883
1821
1857
1863
1828
1872
1827
1872
1862
1851
1890
1829
1875
1873
1840
1886
1825
1859
1851
1817
1872
1830
1917
1934
1908
1999
1986
2027
1978
1887
1883
1794
1806
1789
1748
1795
1728
1762
1757
1743
1780
1669
1744
2146
2972
3177
1967
1443
1291
1322
1664
1705
1734
1738
1725
1791
1760
1793
1803
1787
1845
1795
1840
1840
1819
1867
1802
1826
1824
1804
1837
1793
1845
1866
1871
1942
1909
1946
1951
1917
1947
1882
1909
1890
1872
1919
1872
1910
1909
1883
1931
1875
1905
1894
1873
1913
1850
1892
1879
1855
1904
1855
1883
1895
1915
1974
1947
2026
2045
2004
2000
1883
1875
1840
1791
1839
1778
1803
1777
1757
1810
1756
1775
1715
1884
2587
3312
2559
1663
1415
1346
1485
1744
1759
1738
1807
1772
1815
1828
1801
1872
1824
1857
1850
1835
1899
1849
1872
1874
1856
1893
1842
1872
1878
1889
1953
1936
2000
2000
1973
2013
1951
1971
1952
1930
1979
1933
1968
1958
1935
1993
1943
1974
1977
1949
2001
1946
1968
1962
1931
1978
1936
1981
1986
2006
2045
2047
2126
2131
2064
2038
1923
1917
1887
1841
1890
1819
1841
1839
1808
1863
1808
1773
1841
2284
3201
3100
2019
1513
1375
1334
1514
1735
1767
1734
1800
1769
1808
1819
1806
1870
1811
1856
1845
1811
1855
1795
1830
1808
1779
1824
1772
1825
1846
1834
1903
1875
1919
1936
1908
1936
1883
1904
1884
1857
1906
1851
1873
1872
1856
1893
1840
1872
1863
1841
1878
1840
1870
1850
1827
1861
1813
1851
1876
1877
1923
1920
1999
1998
1927
1890
1782
1791
1749
1709
1744
1677
1711
1715
1681
1727
1680
1651
1699
2112
2992
3015
1927
1351
1201
1214
1444
1638
1638
1629
1680
1643
1687
1696
1671
1727
1675
1735
1719
1699
1751
1702
1729
1709
1680
1734
1687
1723
1727
1728
1803
1779
1839
1830
1821
1855
1787
1814
1800
1776
1824
1765
1809
1805
1780
1834
1792
1824
1815
1806
1842
1795
1817
1815
1783
1837
1791
1816
1840
1861
1921
1888
1983
2003
1942
1920
1808
1809
1782
1744
1774
1710
1743
1733
1712
1758
1712
1711
1664
1904
2693
3291
2339
1502
1275
1267
1488
1699
1698
1671
1745
1709
1751
1755
1745
1801
1767
1813
1809
1778
1834
1798
1821
1806
1778
1818
1786
1819
1822
1825
1890
1869
1938
1935
1901
1947
1866
1883
1889
1855
1904
1859
1907
1895
1873
1920
1872
1907
1886
1865
1915
1859
1904
1893
1865
1891
1844
1878
1872
1851
1921
1927
1968
1979
2002
2070
1995
1965
1893
1843
1853
1776
1807
1792
1759
1795
1738
1791
1776
1715
1719
1936
2719
3295
2270
1583
1356
1328
1582
1697
1750
1712
1763
1776
1772
1815
1775
1827
1824
1804
1856
1798
1839
1821
1808
1846
1792
1836
1828
1810
1871
1845
1909
1926
1925
1985
1936
1963
1936
1917
1943
1881
1931
1918
1893
1934
1890
1931
1921
1902
1950
1905
1933
1924
1905
1936
1882
1917
1911
1887
1933
1934
2007
1999
2032
2121
2075
2064
1990
1925
1927
1851
1872
1858
1837
1872
1807
1857
1840
1819
1804
1810
2305
3167
3033
2011
1501
1433
1367
1616
1811
1774
1824
1826
1808
1882
1839
1882
1881
1862
1904
1868
1904
1902
1875
1906
1843
1877
1879
1870
1915
1872
1947
1958
1968
2032
1977
2014
1985
1957
1984
1923
1961
1942
1927
1986
1920
1963
1954
1931
1968
1921
1967
1941
1937
1951
1903
1927
1930
1939
2010
1966
2032
2081
2089
2102
1975
1958
1890
1830
1845
1788
1811
1793
1778
1803
1747
1798
1741
1677
2000
2672
3420
2511
1554
1378
1200
1383
1633
1678
1712
1685
1733
1720
1712
1759
1715
1769
1758
1744
1789
1741
1773
1739
1712
1755
1692
1734
1716
1719
1791
1773
1840
1845
1841
1889
1825
1856
1829
1811
1840
1787
1840
1811
1796
1841
1791
1846
1834
1808
1847
1795
1839
1813
1791
1828
1779
1818
1821
1858
1901
1873
1961
1973
1937
1908
1789
1780
1748
1705
1731
1675
1711
1680
1674
1713
1661
1662
1616
1845
2621
3261
2384
1463
1226
1198
1411
1647
1641
1618
1672
1647
1712
1682
1689
1745
1698
1759
1742
1717
1776
1716
1765
1739
1712
1745
1702
1744
1743
1759
1833
1803
1877
1870
1859
1887
1830
1859
1834
1813
1856
1808
1855
1829
1821
1871
1823
1863
1840
1835
1856
1811
1855
1836
1818
1861
1805
1854
1893
1903
1945
1936
2019
2000
1936
1905
1830
1830
1779
1750
1791
1731
1771
1744
1728
1785
1712
1693
1744
2218
3171
2973
1872
1403
1249
1411
1639
1735
1713
1709
1772
1734
1796
1783
1775
1824
1777
1834
1809
1804
1844
1792
1833
1808
1796
1835
1786
1835
1838
1853
1918
1894
1965
1936
1917
1952
1890
1925
1898
1890
1915
1871
1920
1901
1899
1931
1898
1934
1903
1899
1931
1879
1918
1894
1887
1919
1892
1975
1974
1975
2064
2041
2089
2003
1934
1935
1856
1863
1840
1818
1854
1802
1837
1815
1822
1835
1722
1914
2487
3379
2825
1776
1523
1374
1470
1757
1764
1807
1791
1808
1863
1812
1872
1863
1859
1905
1863
1920
1893
1843
1825
1797
1869
1856
1854
1907
1856
1922
1936
1971
2014
1971
2032
2000
1981
2003
1940
1982
1968
1963
1987
1943
1987
1971
1951
1988
1952
1999
1953
1962
1985
1933
1984
1937
1946
2022
1987
2032
2067
2106
2155
2053
2022
1936
1889
1899
1822
1869
1827
1808
1839
1802
1847
1824
1733
1851
2278
3213
3164
2012
1520
1362
1325
1535
1712
1770
1716
1774
1773
1776
1819
1776
1831
1813
1808
1824
1779
1821
1786
1762
1799
1738
1774
1747
1760
1820
1808
1872
1867
1893
1943
1875
1902
1872
1859
1881
1824
1883
1846
1839
1874
1826
1872
1839
1844
1877
1825
1873
1838
1827
1847
1808
1853
1841
1879
1925
1920
1991
1993
1935
1898
1778
1786
1740
1718
1729
1662
1699
1665
1680
1712
1661
1648
1645
1995
2863
3178
2080
1351
1193
1205
1443
1654
1626
1621
1667
1645
1700
1673
1683
1725
1693
1739
1712
1723
1771
1712
1754
1710
1707
1743
1690
1742
1725
1752
1811
1792
1872
1851
1843
1871
1809
1840
1819
1808
1840
1791
1840
1821
1825
1851
1815
1869
1841
1829
1851
1808
1858
1824
1819
1842
1803
1843
1840
1876
1924
1903
2007
2000
1957
1923
1819
1840
1757
1744
1771
1706
1746
1722
1719
1755
1706
1718
1665
1936
2741
3263
2272
1474
1281
1287
1527
1718
1694
1695
1742
1711
1777
1749
1765
1808
1775
1831
1808
1825
1845
1797
1841
1804
1796
1827
1787
1822
1791
1829
1889
1851
1935
1909
1891
1936
1878
1894
1874
1858
1876
1844
1904
1863
1878
1901
1840
1907
1866
1856
1910
1856
1872
1855
1859
1872
1840
1874
1836
1889
1948
1904
1998
1998
2017
2032
1925
1904
1855
1824
1827
1770
1797
1755
1782
1797
1735
1815
1735
1695
1971
2636
3351
2426
1609
1423
1321
1605
1727
1755
1773
1743
1835
1802
1792
1855
1815
1859
1857
1858
1872
1855
1902
1845
1863
1885
1838
1904
1877
1873
1935
1907
1981
1998
1991
2008
1979
1995
1943
1959
1974
1917
1975
1942
1935
1979
1933
1978
1962
1946
1967
1943
1983
1935
1950
1971
1902
1972
1937
1923
1995
1983
2027
2081
2102
2135
2066
2032
1935
1918
1911
1841
1885
1837
1831
1878
1814
1851
1841
1779
1847
2235
3121
3159
2107
1571
1407
1366
1535
1744
1810
1764
1817
1815
1819
1855
1835
1875
1840
1872
1887
1826
1889
1840
1826
1859
1797
1829
1835
1819
1861
1869
1934
1920
1968
1982
1920
1984
1925
1903
1947
1895
1920
1903
1907
1910
1883
1926
1882
1907
1935
1872
1932
1890
1868
1911
1871
1899
1867
1872
1921
1909
1985
1965
2009
2073
2029
2034
1908
1861
1861
1776
1808
1765
1753
1775
1721
1776
1742
1744
1699
1740
2264
3082
2993
1894
1354
1287
1251
1535
1709
1665
1722
1696
1718
1750
1713
1766
1744
1755
1777
1737
1795
1761
1758
1774
1717
1776
1738
1744
1765
1741
1815
1811
1850
1894
1850
1898
1853
1847
1856
1813
1860
1809
1835
1865
1818
1865
1839
1840
1867
1822
1866
1833
1847
1855
1817
1866
1820
1818
1841
1790
1843
1831
1883
1910
1898
1990
1969
1950
1909
1811
1811
1757
1744
1745
1695
1735
1689
1705
1723
1683
1712
1648
1887
2615
3245
2416
1499
1294
1228
1405
1680
1667
1675
1714
1687
1749
1725
1744
1775
1744
1799
1766
1791
1824
1766
1813
1783
1789
1808
1763
1821
1793
1828
1869
1853
1926
1906
1915
1922
1872
1909
1862
1872
1890
1845
1899
1863
1872
1903
1856
1904
1866
1878
1904
1866
1916
1865
1873
1898
1847
1889
1843
1859
1872
1823
1897
1911
1937
1983
1984
2063
1997
1952
1903
1812
1840
1774
1782
1793
1732
1792
1750
1760
1781
1714
1711
1863
2529
3326
2457
1638
1375
1275
1503
1667
1753
1709
1730
1774
1744
1794
1758
1776
1808
1790
1834
1792
1817
1825
1782
1841
1795
1806
1825
1768
1824
1813
1847
1897
1876
1941
1908
1919
1914
1872
1909
1856
1868
1887
1845
1901
1857
1874
1899
1859
1904
1859
1879
1889
1840
1883
1855
1868
1875
1833
1879
1841
1858
1863
1839
1938
1921
1943
2000
2002
2053
1953
1906
1865
1808
1839
1776
1805
1808
1754
1794
1763
1799
1789
1687
1839
2339
3238
2798
1744
1493
1328
1451
1714
1731
1776
1738
1781
1811
1775
1837
1811
1838
1854
1825
1891
1841
1869
1877
1838
1880
1849
1867
1867
1840
1903
1901
1953
1970
1947
2009
1959
1963
1968
1923
1965
1917
1932
1953
1927
1968
1935
1939
1968
1926
1962
1931
1951
1960
1919
1967
1918
1943
1937
1903
1951
1953
1996
2006
2029
2116
2096
2065
1999
1911
1919
1857
1840
1851
1794
1855
1813
1829
1834
1793
1786
1817
2245
3101
3109
2075
1477
1408
1325
1511
1767
1759
1781
1808
1792
1851
1804
1831
1850
1820
1874
1838
1849
1856
1834
1872
1819
1831
1845
1810
1857
1836
1878
1904
1909
1974
1946
1958
1965
1906
1951
1905
1931
1918
1885
1936
1887
1897
1917
1883
1925
1886
1901
1899
1875
1910
1851
1871
1882
1833
1885
1843
1891
1937
1905
2005
2001
2032
2000
1876
1880
1790
1777
1774
1729
1766
1709
1726
1744
1712
1744
1648
1712
2101
2878
3206
2033
1387
1263
1171
1509
1638
1669
1675
1661
1722
1690
1734
1744
1712
1774
1741
1760
1775
1738
1792
1736
1734
1745
1712
1772
1730
1749
1786
1787
1857
1831
1869
1872
1834
1875
1823
1837
1837
1792
1849
1807
1837
1849
1812
1866
1821
1851
1842
1808
1858
1818
1835
1846
1790
1846
1791
1815
1865
1867
1915
1903
1973
2000
1936
1906
1797
1790
1762
1712
1753
1699
1715
1715
1681
1747
1712
1679
1678
1965
2801
3230
2186
1455
1235
1265
1521
1687
1712
1675
1741
1711
1747
1775
1747
1804
1776
1804
1814
1779
1825
1787
1811
1808
1777
1817
1774
1807
1823
1795
1873
1862
1904
1920
1885
1927
1881
1888
1891
1854
1901
1857
1872
1873
1853
1905
1869
1886
1900
1862
1907
1873
1889
1880
1855
1904
1853
1874
1878
1841
1922
1930
1961
1998
2003
2077
1982
1943
1901
1835
1845
1785
1808
1804
1765
1811
1765
1776
1787
1710
1771
2096
2959
3179
2000
1501
1326
1362
1646
1719
1776
1744
1777
1802
1787
1842
1793
1834
1848
1826
1867
1823
1858
1870
1829
1872
1819
1839
1838
1812
1877
1850
1905
1936
1930
1985
1935
1951
1939
1904
1955
1895
1920
1917
1898
1951
1904
1931
1943
1909
1953
1904
1919
1923
1895
1933
1886
1914
1906
1885
1937
1940
1984
1989
2015
2112
2064
2027
1959
1892
1921
1843
1856
1845
1803
1846
1806
1835
1833
1791
1771
1872
2463
3333
2769
1817
1467
1381
1393
1638
1799
1761
1793
1801
1793
1856
1829
1868
1871
1851
1913
1856
1889
1894
1861
1899
1842
1871
1872
1841
1902
1871
1931
1965
1953
2029
1984
1996
1982
1934
1980
1917
1947
1957
1909
1970
1921
1946
1943
1917
1955
1904
1938
1936
1911
1950
1902
1923
1908
1890
1938
1921
1981
1980
2000
2094
2063
2028
1953
1872
1872
1791
